Time,ECG
460,1.4838
461,59.177
462,116.6
463,175.1
464,248.43
465,306.66
466,379.72
467,436.88
468,501.31
469,547.68
470,586.23
471,618.85
472,646.89
473,663.34
474,669.54
475,651.74
476,642.85
477,618.58
478,582.46
479,554.69
480,520.72
481,487.56
482,481.63
483,483.52
484,473.27
485,456.29
486,430.14
487,391.05
488,343.33
489,293.45
490,242.77
491,199.64
492,157.58
493,123.88
494,83.44
495,49.202
496,14.963
1362,19.816
1363,73.735
1364,138.71
1365,198.02
1366,261.1
1367,327.42
1368,392.66
1369,458.72
1370,518.3
1371,561.16
1372,594.32
1373,626.13
1374,659.29
1375,675.74
1376,691.64
1377,683.02
1378,665.76
1379,640.42
1380,614.27
1381,572.21
1382,539.05
1383,506.97
1384,492.14
1385,484.06
1386,473.54
1387,456.83
1388,435.26
1389,388.89
1390,339.02
1391,289.41
1392,239.0
1393,192.36
1394,151.11
1395,112.83
1396,81.014
1397,46.776
1398,17.929
2240,44.08
2241,94.224
2242,156.77
2243,216.89
2244,273.23
2245,337.67
2246,403.72
2247,462.22
2248,512.09
2249,553.61
2250,586.5
2251,610.77
2252,634.76
2253,658.48
2254,649.05
2255,639.88
2256,613.19
2257,579.22
2258,546.06
2259,510.75
2260,471.93
2261,458.18
2262,451.98
2263,448.47
2264,430.14
2265,411.81
2266,383.77
2267,347.1
2268,305.05
2269,262.99
2270,225.79
2271,188.85
2272,151.11
2273,114.44
2274,75.622
2275,47.854
2276,24.938
3124,17.12
3125,74.005
3126,131.7
3127,189.39
3128,255.17
3129,328.77
3130,394.28
3131,459.25
3132,516.14
3133,572.75
3134,620.2
3135,659.29
3136,690.03
3137,712.13
3138,726.15
3139,729.39
3140,716.99
3141,697.58
3142,668.46
3143,634.76
3144,598.63
3145,553.88
3146,522.61
3147,511.56
3148,503.74
3149,491.34
3150,469.77
3151,439.84
3152,401.83
3153,354.11
3154,305.05
3155,248.43
3156,200.17
3157,168.09
3158,120.91
3159,83.44
3160,51.628
3161,17.659
4059,11.459
4060,71.309
4061,127.92
4062,188.04
4063,259.75
4064,325.81
4065,385.39
4066,452.78
4067,514.25
4068,565.47
4069,615.35
4070,654.71
4071,679.78
4072,704.85
4073,718.6
4074,713.75
4075,697.31
4076,681.67
4077,649.86
4078,623.98
4079,584.35
4080,548.76
4081,522.34
4082,511.83
4083,512.09
4084,487.56
4085,470.31
4086,436.88
4087,395.09
4088,344.68
4089,286.18
4090,229.56
4091,188.85
4092,148.14
4093,115.79
4094,82.632
4095,49.202
4096,18.199
4991,54.594
4992,115.79
4993,171.6
4994,236.3
4995,301.54
4996,374.6
4997,442.54
4998,491.88
4999,549.03
5000,590.55
5001,630.99
5002,663.61
5003,687.6
5004,703.24
5005,709.17
5006,691.64
5007,683.02
5008,663.61
5009,628.02
5010,585.42
5011,545.79
5012,525.04
5013,518.03
5014,506.7
5015,489.99
5016,468.69
5017,431.49
5018,386.46
5019,336.05
5020,285.64
5021,239.8
5022,198.02
5023,161.62
5024,123.34
5025,90.989
5026,62.412
5027,33.026
5028,9.5716
5889,11.459
5890,59.986
5891,114.17
5892,181.57
5893,247.08
5894,312.6
5895,378.92
5896,440.65
5897,497.81
5898,551.73
5899,595.94
5900,632.6
5901,659.02
5902,684.1
5903,698.38
5904,701.08
5905,688.41
5906,671.69
5907,642.58
5908,608.07
5909,574.1
5910,546.87
5911,528.27
5912,518.03
5913,510.75
5914,487.02
5915,461.41
5916,429.33
5917,379.72
5918,337.94
5919,288.33
5920,246.81
5921,197.48
5922,164.32
5923,123.07
5924,90.45
5925,58.368
5926,32.487
5927,1.4838
6763,26.556
6764,81.014
6765,145.45
6766,204.22
6767,271.08
6768,336.59
6769,401.83
6770,468.96
6771,526.65
6772,575.72
6773,616.43
6774,648.24
6775,675.74
6776,701.35
6777,711.32
6778,704.32
6779,689.22
6780,673.31
6781,644.2
6782,611.04
6783,568.98
6784,546.33
6785,529.89
6786,519.1
6787,512.09
6788,488.37
6789,463.57
6790,423.67
6791,373.79
6792,331.74
6793,290.49
6794,240.88
6795,207.72
6796,165.67
6797,125.5
6798,100.69
6799,66.995
6800,34.644
6801,11.998
7252,1.7534
7253,1.4838
7254,1.7534
7255,1.4838
7256,1.7534
7259,1.2142
7288,1.7534
7290,1.4838
7295,2.023
7296,1.7534
7297,2.023
7298,1.2142
7323,2.5621
7324,1.7534
7325,2.023
7326,2.023
7327,2.023
7328,1.7534
7329,2.5621
7331,0.94458
7332,2.5621
7351,3.3709
7438,4.4493
7447,1.4838
7451,1.2142
7452,4.1797
7454,2.2925
7559,9.0324
7560,60.255
7561,123.07
7562,184.81
7563,246.28
7564,306.93
7565,374.06
7566,435.53
7567,487.56
7568,540.4
7569,591.36
7570,623.17
7571,653.36
7572,669.27
7573,676.55
7574,672.5
7575,657.68
7576,627.48
7577,592.97
7578,560.08
7579,519.37
7580,482.71
7581,479.74
7582,472.19
7583,463.3
7584,446.85
7585,422.05
7586,388.62
7587,355.19
7588,321.76
7589,288.6
7590,254.9
7591,212.31
7592,173.75
7593,147.06
7594,106.63
7595,83.98
7596,58.099
7597,35.453
7598,19.816
7599,3.1013
8330,13.615
8331,63.221
8332,127.92
8333,185.89
8334,251.4
8335,316.91
8336,382.69
8337,448.2
8338,513.44
8339,570.06
8340,617.24
8341,649.05
8342,680.32
8343,704.58
8344,724.8
8345,721.3
8346,707.82
8347,683.56
8348,664.15
8349,625.32
8350,585.96
8351,552.53
8352,523.15
8353,516.14
8354,509.13
8355,494.03
8356,484.33
8357,458.18
8358,420.97
8359,368.4
8360,315.29
8361,258.68
8362,216.89
8363,179.15
8364,143.56
8365,104.47
8366,68.882
8367,35.722
8368,8.4932
8932,2.8317
8933,1.4838
8934,2.5621
9026,3.6405
9027,4.1797
9131,28.174
9132,78.048
9133,136.01
9134,194.51
9135,260.56
9136,327.69
9137,401.29
9138,463.3
9139,522.88
9140,584.62
9141,632.6
9142,676.55
9143,707.28
9144,738.01
9145,754.73
9146,758.77
9147,749.34
9148,732.35
9149,706.74
9150,672.5
9151,633.14
9152,599.71
9153,580.3
9154,568.98
9155,560.62
9156,551.73
9157,539.32
9158,502.93
9159,460.87
9160,412.61
9161,362.47
9162,312.06
9163,270.27
9164,220.93
9165,179.15
9166,129.54
9167,95.842
9168,62.682
9169,37.879
9170,13.346
9560,1.4838
9603,1.4838
9605,0.94458
9607,4.7189
9608,9.5716
9609,8.2236
9610,9.5716
9611,3.3709
9612,0.94458
9636,0.94458
9638,3.1013
9639,6.8756
9640,2.5621
9641,7.4148
9643,0.94458
9650,0.94458
9652,5.7973
9653,9.302
9654,8.7628
9655,8.4932
9656,9.5716
9657,2.8317
9659,7.1452
9660,9.8412
9661,1.7534
9663,1.2142
9675,1.2142
9676,2.023
9677,8.2236
9679,0.94458
9682,1.2142
9689,1.4838
9690,0.94458
9692,6.3365
9693,4.7189
9696,7.4148
9697,2.5621
9698,6.8756
9699,3.1013
9700,1.2142
9703,1.2142
9705,8.7628
9706,0.94458
9707,8.4932
9708,1.2142
9724,1.4838
9727,1.7534
9730,5.2581
9731,5.5277
9733,0.94458
9756,1.4838
9757,8.4932
9765,1.7534
9768,4.4493
9769,5.5277
9770,3.6405
9771,6.3365
9774,1.4838
9781,1.2142
9784,1.4838
9808,5.2581
9809,6.6061
9811,1.2142
9812,0.94458
9814,1.7534
9817,1.4838
9818,1.4838
9867,1.7534
9868,1.2142
9869,1.4838
9870,1.4838
9871,1.2142
9872,2.023
9874,0.94458
9875,1.4838
9876,1.4838
9877,1.4838
9878,1.4838
9879,1.4838
9880,0.94458
9882,1.2142
9884,2.2925
9885,1.2142
9886,1.4838
9887,1.4838
9888,1.2142
9889,2.023
9894,2.023
9895,2.023
9914,1.4838
9916,1.4838
9920,1.4838
9922,2.2925
9923,0.94458
9926,1.2142
9983,43.81
9984,96.65
9985,154.61
9986,222.01
9987,287.52
9988,353.03
9989,418.82
9990,483.52
9991,551.73
9992,596.75
9993,644.2
9994,679.51
9995,712.4
9996,729.93
9997,746.64
9998,740.17
9999,723.46
10000,698.11
10001,673.04
10002,631.26
10003,597.83
10004,573.02
10005,564.67
10006,556.31
10007,555.77
10008,544.99
10009,516.95
10010,472.46
10011,424.48
10012,379.99
10013,322.03
10014,273.23
10015,224.71
10016,187.23
10017,151.65
10018,111.21
10019,83.71
10020,54.324
10021,28.713
10022,8.4932
10497,0.94458
10506,1.4838
10517,1.2142
10534,1.2142
10538,1.2142
10555,2.5621
10558,1.7534
10559,1.2142
10570,1.4838
10573,1.7534
10599,1.2142
10600,4.1797
10601,6.8756
10602,0.94458
10617,2.2925
10625,1.2142
10627,1.2142
10628,1.2142
10629,1.2142
10630,1.2142
10631,1.2142
10632,1.2142
10633,1.2142
10634,1.2142
10635,1.2142
10636,1.2142
10637,1.2142
10638,1.2142
10639,1.2142
10640,0.94458
10641,1.7534
10663,2.2925
10665,0.94458
10725,2.8317
10726,2.5621
10733,3.1013
10734,1.7534
10735,2.023
10736,2.023
10737,2.023
10738,2.023
10739,2.023
10740,2.023
10741,2.023
10742,2.023
10743,2.023
10744,2.023
10745,1.7534
10746,2.8317
10748,1.7534
10750,2.023
10756,2.5621
10757,1.7534
10758,2.2925
10759,0.94458
10790,2.2925
10792,2.2925
10794,2.2925
10809,1.2142
10845,9.302
10846,58.368
10847,109.32
10848,169.17
10849,239.0
10850,308.28
10851,364.63
10852,440.65
10853,509.67
10854,559.81
10855,611.31
10856,650.4
10857,687.87
10858,715.1
10859,735.59
10860,741.52
10861,735.86
10862,716.99
10863,683.56
10864,657.14
10865,619.66
10866,581.92
10867,559.81
10868,558.46
10869,543.91
10870,534.47
10871,511.29
10872,486.48
10873,446.58
10874,396.98
10875,347.1
10876,297.5
10877,247.62
10878,206.38
10879,173.22
10880,140.06
10881,106.9
10882,74.544
10883,50.011
10884,26.286
10885,9.0324
11253,7.4148
11255,7.4148
11317,1.7534
11321,0.94458
11324,7.4148
11325,1.7534
11326,6.3365
11327,8.7628
11328,9.0324
11329,1.2142
11332,7.954
11333,8.2236
11334,8.4932
11336,8.2236
11338,8.7628
11339,8.2236
11340,8.2236
11341,8.2236
11342,8.2236
11343,8.2236
11344,8.2236
11345,8.2236
11346,8.2236
11347,8.2236
11348,8.2236
11349,8.2236
11350,7.954
11351,9.0324
11352,4.1797
11353,3.3709
11354,5.2581
11355,1.7534
11356,14.155
11357,11.728
11358,11.728
11359,17.12
11360,16.042
11361,16.311
11362,16.042
11363,16.042
11364,16.042
11365,16.042
11366,16.042
11367,15.772
11368,16.851
11369,9.302
11370,7.6844
11371,7.954
11372,7.954
11373,7.954
11374,7.954
11375,7.954
11376,7.954
11377,7.954
11378,7.954
11379,7.954
11380,7.954
11381,7.954
11382,7.954
11383,7.954
11384,7.954
11385,7.954
11386,7.4148
11387,10.111
11388,14.424
11389,8.7628
11390,16.851
11391,16.042
11392,13.076
11393,7.1452
11394,7.1452
11395,11.998
11396,12.268
11397,10.38
11398,16.851
11399,15.503
11400,15.503
11401,16.851
11402,9.5716
11403,13.076
11404,10.92
11405,6.8756
11406,7.6844
11407,7.6844
11408,6.8756
11409,13.885
11410,16.581
11411,8.4932
11412,7.4148
11413,6.8756
11414,15.503
11415,7.6844
11416,14.963
11417,15.503
11418,15.503
11419,7.4148
11420,7.4148
11421,7.4148
11422,7.4148
11423,7.4148
11424,7.1452
11425,8.2236
11426,16.042
11427,15.233
11428,15.503
11429,15.503
11430,15.503
11431,15.233
11432,15.233
11433,15.233
11434,15.233
11435,15.233
11436,15.233
11437,15.233
11438,15.233
11439,15.233
11440,15.233
11441,15.233
11442,14.963
11443,16.042
11444,10.111
11445,6.3365
11446,7.1452
11447,7.1452
11448,6.3365
11449,12.807
11450,16.581
11451,7.6844
11452,13.346
11453,15.503
11454,14.963
11455,14.963
11456,15.503
11457,7.4148
11458,6.8756
11459,6.8756
11460,6.8756
11461,6.8756
11462,6.8756
11463,6.8756
11464,6.8756
11465,6.8756
11466,6.8756
11467,6.6061
11468,8.4932
11469,14.155
11470,5.7973
11471,7.1452
11472,6.0669
11473,9.5716
11474,13.346
11475,5.7973
11476,6.3365
11477,9.8412
11478,15.503
11479,15.503
11480,10.92
11481,6.6061
11482,2.8317
11493,6.3365
11495,6.0669
11497,6.3365
11504,6.8756
11505,6.6061
11506,6.8756
11507,6.6061
11508,6.6061
11509,6.8756
11510,6.3365
11511,7.954
11512,16.042
11513,12.268
11514,7.954
11515,15.772
11516,14.424
11517,14.694
11518,14.694
11519,14.963
11520,13.885
11521,18.199
11522,23.051
11523,23.59
11524,17.12
11525,19.277
11526,17.929
11527,18.468
11528,23.321
11529,22.243
11530,22.512
11531,22.512
11532,21.703
11533,28.443
11534,31.409
11535,24.669
11536,14.424
11537,21.973
11538,14.694
11539,21.434
11540,22.512
11541,22.243
11542,22.243
11543,22.243
11544,22.243
11545,22.243
11546,22.243
11547,21.703
11548,13.076
11549,5.5277
11550,6.0669
11551,5.7973
11552,6.3365
11553,4.4493
11556,4.1797
11558,7.6844
11559,2.5621
11604,1.4838
11605,7.1452
11606,4.9885
11607,10.38
11608,14.963
11609,13.885
11610,14.155
11611,14.155
11612,14.155
11613,14.155
11614,14.155
11615,14.155
11616,13.885
11617,14.155
11618,13.615
11619,14.963
11620,6.0669
11621,13.615
11622,6.0669
11623,13.615
11624,6.0669
11625,13.885
11626,6.0669
11627,5.7973
11628,6.0669
11629,14.155
11630,13.885
11631,13.885
11632,13.885
11633,14.155
11634,12.807
11635,4.9885
11636,6.0669
11637,5.7973
11638,5.7973
11639,5.7973
11640,5.7973
11641,5.7973
11642,5.7973
11643,5.7973
11644,5.7973
11645,5.5277
11646,6.6061
11647,1.4838
11653,4.1797
11655,3.3709
11656,0.94458
11658,4.9885
11669,5.7973
11671,5.7973
11681,3.6405
11683,4.1797
11688,2.023
11689,2.5621
11727,53.246
11728,103.93
11729,166.21
11730,232.26
11731,298.04
11732,363.28
11733,429.87
11734,490.53
11735,547.68
11736,600.52
11737,643.93
11738,679.24
11739,705.39
11740,725.61
11741,721.84
11742,713.21
11743,691.37
11744,664.95
11745,640.15
11746,607.8
11747,573.29
11748,554.42
11749,544.99
11750,544.45
11751,528.0
11752,502.93
11753,477.59
11754,443.62
11755,393.47
11756,353.3
11757,318.53
11758,268.65
11759,227.67
11760,187.77
11761,153.0
11762,114.44
11763,89.102
11764,57.02
11765,32.757
11766,10.92
12090,7.4148
12093,7.954
12094,7.954
12095,5.5277
12096,0.94458
12097,6.6061
12106,9.0324
12107,7.1452
12108,7.4148
12109,8.2236
12110,2.5621
12129,7.954
12130,7.4148
12131,7.4148
12132,8.2236
12133,16.311
12134,15.503
12135,15.503
12136,16.042
12137,13.885
12138,6.6061
12139,7.6844
12140,7.4148
12141,7.4148
12142,7.954
12143,4.4493
12165,7.1452
12166,7.6844
12167,7.4148
12168,7.4148
12169,7.4148
12170,7.4148
12171,7.6844
12172,7.1452
12176,0.94458
12177,6.6061
12179,8.4932
12180,7.4148
12181,6.8756
12182,10.38
12183,13.615
12184,6.6061
12185,6.8756
12186,11.189
12187,12.807
12188,6.3365
12189,7.954
12190,6.6061
12191,11.459
12192,17.39
12193,9.302
12194,12.807
12195,9.8412
12196,12.268
12197,15.233
12198,21.164
12199,23.051
12200,29.522
12201,31.678
12202,31.139
12203,31.948
12204,24.13
12205,22.782
12206,23.59
12207,16.042
12208,6.8756
12209,14.963
12210,7.1452
12211,6.8756
12212,6.8756
12213,6.8756
12214,7.6844
12215,14.694
12216,7.1452
12217,15.772
12218,14.963
12219,14.424
12220,17.12
12221,21.434
12222,15.772
12223,24.13
12224,22.512
12225,23.051
12226,22.782
12227,22.782
12228,22.782
12229,22.782
12230,22.782
12231,22.512
12232,23.86
12233,17.12
12234,19.547
12235,17.659
12236,18.738
12237,23.321
12238,22.512
12239,22.243
12240,23.59
12241,15.233
12242,21.164
12243,16.311
12244,13.885
12245,14.424
12246,14.424
12247,14.424
12248,14.424
12249,14.424
12250,14.424
12251,14.424
12252,14.424
12253,22.512
12254,22.243
12255,22.243
12256,22.243
12257,22.243
12258,22.243
12259,22.243
12260,22.243
12261,22.243
12262,22.243
12263,21.973
12264,21.973
12265,21.973
12266,21.973
12267,21.973
12268,21.973
12269,21.973
12270,21.973
12271,21.973
12272,21.973
12273,21.973
12274,21.973
12275,21.434
12276,23.051
12277,15.772
12278,19.007
12279,17.12
12280,12.807
12281,13.885
12282,13.615
12283,13.615
12284,13.615
12285,13.615
12286,13.885
12287,13.076
12288,20.895
12289,21.703
12290,21.973
12291,13.615
12292,21.164
12293,21.434
12294,21.434
12295,21.434
12296,21.164
12297,13.615
12298,21.434
12299,12.537
12300,13.615
12301,13.346
12302,13.346
12303,12.807
12304,15.503
12305,19.547
12306,14.963
12307,19.277
12308,15.233
12309,19.007
12310,14.963
12311,22.512
12312,20.625
12313,22.243
12314,16.311
12315,16.311
12316,21.973
12317,20.895
12318,21.164
12319,20.895
12320,21.164
12321,20.895
12322,21.973
12323,14.963
12324,12.807
12325,11.998
12326,20.355
12327,13.885
12328,19.277
12329,21.164
12330,20.895
12331,20.625
12332,21.164
12333,13.076
12334,12.537
12335,12.807
12336,12.807
12337,12.537
12338,13.076
12339,20.625
12340,11.728
12341,13.615
12342,21.164
12343,20.895
12344,19.277
12345,11.998
12346,12.268
12347,14.963
12348,19.277
12349,11.459
12350,12.807
12351,12.268
12352,13.076
12353,9.0324
12354,3.6405
12355,3.9101
12356,8.2236
12357,13.346
12358,11.998
12359,13.076
12360,7.6844
12361,2.5621
12362,10.92
12363,6.0669
12364,10.65
12365,6.0669
12366,10.65
12367,6.3365
12368,3.9101
12369,4.1797
12370,4.9885
12372,3.9101
12374,3.6405
12375,4.4493
12376,4.1797
12377,4.1797
12378,4.1797
12380,4.1797
12383,4.9885
12384,2.5621
12386,3.6405
12401,0.94458
12402,4.9885
12403,4.1797
12404,4.1797
12405,4.4493
12406,3.3709
12407,10.111
12408,13.076
12409,11.189
12410,19.547
12411,13.885
12412,11.998
12413,12.268
12414,12.268
12415,12.268
12416,12.268
12417,11.998
12418,12.268
12419,4.1797
12420,4.1797
12421,4.4493
12422,11.998
12423,4.1797
12424,12.807
12425,11.998
12426,11.998
12427,12.537
12428,10.65
12429,3.3709
12430,4.1797
12431,4.1797
12432,3.3709
12433,6.6061
12434,12.807
12435,12.537
12436,9.0324
12437,2.8317
12438,4.9885
12452,3.3709
12466,4.4493
12467,4.1797
12468,2.5621
12470,4.9885
12471,4.1797
12472,2.5621
12491,3.1013
12526,40.305
12527,97.459
12528,160.81
12529,222.28
12530,277.55
12531,342.25
12532,401.02
12533,465.72
12534,518.3
12535,567.63
12536,603.49
12537,628.56
12538,645.54
12539,654.71
12540,647.16
12541,630.72
12542,605.1
12543,588.12
12544,546.6
12545,513.17
12546,480.01
12547,464.11
12548,456.29
12549,454.67
12550,436.88
12551,419.35
12552,391.86
12553,360.04
12554,333.35
12555,302.35
12556,272.7
12557,235.22
12558,206.11
12559,168.63
12560,142.48
12561,111.21
12562,87.484
12563,62.682
12564,37.07
12565,16.311
12566,0.94458
13296,16.581
13297,66.186
13298,124.15
13299,182.38
13300,247.62
13301,305.32
13302,372.45
13303,434.99
13304,496.19
13305,566.28
13306,610.77
13307,648.51
13308,681.4
13309,707.82
13310,724.0
13311,730.2
13312,719.68
13313,704.58
13314,674.66
13315,635.3
13316,598.36
13317,560.08
13318,524.5
13319,515.6
13320,518.3
13321,506.16
13322,489.18
13323,465.72
13324,442.81
13325,397.25
13326,354.92
13327,298.04
13328,261.64
13329,213.92
13330,178.88
13331,138.17
13332,104.47
13333,71.039
13334,46.236
13335,13.346
13644,2.2925
13645,3.9101
13653,1.2142
13654,7.4148
13655,7.1452
13661,6.0669
13667,6.3365
13668,6.6061
13669,6.6061
13670,6.3365
13699,5.5277
13761,6.6061
13764,1.4838
13765,5.7973
13772,2.8317
13773,7.954
13774,6.8756
13775,6.8756
13776,7.954
13777,2.023
13784,5.5277
13785,7.4148
13786,7.1452
13787,6.8756
13788,7.954
13790,6.8756
13793,7.1452
13796,7.4148
13797,6.8756
13798,7.1452
13799,7.1452
13800,6.8756
13801,8.4932
13802,14.424
13803,6.0669
13804,7.1452
13805,7.4148
13806,4.9885
13808,1.2142
13809,10.65
13810,15.772
13811,14.963
13812,14.963
13813,14.963
13814,14.963
13815,14.694
13816,15.772
13817,10.38
13818,6.6061
13819,6.0669
13820,13.076
13821,9.8412
13822,6.8756
13823,1.2142
13827,5.5277
13828,7.1452
13829,6.6061
13830,6.8756
13831,6.3365
13832,14.424
13833,14.963
13834,14.963
13835,6.8756
13836,14.694
13837,6.6061
13838,6.6061
13839,7.4148
13840,14.694
13841,6.0669
13842,6.8756
13843,6.6061
13844,7.1452
13845,4.7189
13847,7.954
13848,5.7973
13849,9.5716
13850,13.076
13851,4.7189
13852,10.65
13853,11.998
13854,5.7973
13855,5.7973
13856,11.189
13857,11.459
13858,4.7189
13859,11.459
13860,15.233
13861,14.155
13862,15.503
13863,9.0324
13864,5.7973
13865,6.8756
13866,5.7973
13867,12.807
13868,15.503
13869,7.6844
13870,6.3365
13871,5.7973
13872,13.885
13873,14.155
13874,21.973
13875,22.782
13876,14.424
13877,14.424
13878,14.424
13879,14.424
13880,14.424
13881,14.424
13882,14.424
13883,13.346
13884,5.5277
13885,6.3365
13886,6.0669
13887,6.3365
13888,6.3365
13889,6.0669
13890,6.3365
13891,5.7973
13892,8.7628
13893,16.042
13894,9.8412
13895,9.5716
13896,11.728
13897,4.7189
13898,7.4148
13899,1.2142
13900,0.94458
13901,11.728
13902,14.694
13903,13.885
13904,14.155
13905,13.885
13906,14.963
13907,7.954
13908,5.5277
13909,5.7973
13910,6.6061
13914,5.2581
13915,6.0669
13916,6.3365
13918,6.0669
13920,6.0669
13922,6.6061
13923,5.2581
13943,3.1013
13944,6.6061
13945,6.8756
13954,5.2581
13955,6.3365
13956,6.0669
13957,6.0669
13958,6.3365
13960,6.0669
13961,6.0669
13962,5.7973
13964,6.8756
13965,15.233
13966,22.512
13967,23.051
13968,30.87
13969,30.061
13970,30.061
13971,30.6
13972,27.904
13973,21.703
13974,19.007
13975,16.311
13976,20.086
13977,12.807
13978,14.155
13979,13.615
13980,13.885
13981,13.885
13982,13.885
13983,13.615
13984,14.424
13985,9.5716
13993,3.9101
13994,6.8756
13996,4.9885
14003,5.7973
14004,5.5277
14005,5.5277
14006,6.0669
14007,14.424
14008,12.537
14009,4.9885
14010,5.7973
14011,5.5277
14012,5.5277
14013,5.7973
14014,5.2581
14015,7.6844
14016,14.963
14017,10.92
14018,4.1797
14019,9.0324
14020,14.155
14021,14.424
14022,8.7628
14023,9.5716
14024,10.111
14025,5.2581
14026,0.94458
14029,3.9101
14031,2.5621
14032,5.7973
14033,6.0669
14037,4.4493
14038,5.7973
14039,5.2581
14040,6.0669
14042,5.2581
14043,5.5277
14044,5.5277
14045,13.346
14046,5.2581
14047,5.2581
14048,6.0669
14049,13.076
14050,4.9885
14051,4.4493
14080,26.826
14081,82.632
14082,140.32
14083,205.57
14084,271.62
14085,329.04
14086,394.55
14087,460.06
14088,525.3
14089,581.65
14090,629.91
14091,669.27
14092,701.08
14093,732.89
14094,753.65
14095,759.04
14096,754.73
14097,733.97
14098,708.36
14099,681.4
14100,643.93
14101,603.22
14102,575.99
14103,563.32
14104,557.66
14105,561.16
14106,543.37
14107,512.36
14108,480.55
14109,432.29
14110,382.15
14111,332.55
14112,281.86
14113,237.65
14114,196.94
14115,154.88
14116,118.76
14117,93.685
14118,61.603
14119,35.453
14120,9.5716
14569,4.9885
14570,2.5621
14573,5.7973
14574,1.4838
14577,5.7973
14578,7.4148
14579,7.1452
14580,6.8756
14581,7.6844
14583,6.8756
14601,3.1013
14602,7.1452
14603,10.111
14604,16.581
14605,12.268
14606,1.2142
14607,3.9101
14608,2.5621
14609,3.6405
14610,3.1013
14629,6.8756
14631,7.1452
14652,2.8317
14653,13.885
14654,9.8412
14655,7.4148
14657,4.4493
14658,8.4932
14665,6.6061
14666,7.1452
14667,7.1452
14668,7.1452
14669,7.1452
14673,8.2236
14674,15.503
14675,14.694
14676,15.772
14677,12.268
14684,2.5621
14685,4.1797
14686,1.2142
14687,7.954
14688,7.6844
14689,2.023
14690,3.3709
14691,2.5621
14692,3.3709
14693,3.1013
14705,7.1452
14707,6.3365
14708,7.4148
14716,7.6844
14717,6.8756
14718,6.8756
14719,7.4148
14720,5.5277
14722,1.7534
14723,4.9885
14725,7.954
14726,7.4148
14727,3.9101
14740,4.9885
14741,7.1452
14742,7.6844
14748,6.8756
14750,6.8756
14772,2.8317
14773,7.954
14774,6.8756
14775,7.1452
14776,7.1452
14777,6.8756
14778,7.954
14779,1.4838
14830,6.6061
14831,7.6844
14832,7.6844
14833,7.1452
14834,15.503
14835,7.4148
14836,7.4148
14843,0.94458
14844,6.8756
14850,2.2925
14851,7.4148
14852,10.92
14853,13.885
14854,2.8317
14887,0.94458
14949,52.167
14950,103.66
14951,159.2
14952,216.35
14953,280.78
14954,346.83
14955,411.54
14956,485.4
14957,544.18
14958,593.24
14959,642.31
14960,674.93
14961,698.92
14962,722.65
14963,729.66
14964,728.31
14965,718.6
14966,699.19
14967,666.03
14968,639.07
14969,596.48
14970,566.28
14971,554.42
14972,552.8
14973,543.37
14974,532.58
14975,513.98
14976,478.93
14977,430.41
14978,387.0
14979,335.78
14980,286.71
14981,235.22
14982,193.7
14983,163.24
14984,124.15
14985,87.484
14986,53.246
14987,31.948
14988,10.111
15519,2.5621
15520,3.9101
15535,6.0669
15549,7.1452
15550,6.6061
15551,6.6061
15552,7.1452
15553,5.2581
15583,6.6061
15584,6.8756
15585,6.8756
15587,6.8756
15589,7.4148
15590,6.8756
15591,5.7973
15604,2.2925
15605,7.954
15606,5.2581
15607,12.807
15608,6.6061
15625,6.8756
15628,6.8756
15629,6.6061
15630,7.4148
15631,14.694
15632,6.3365
15633,6.0669
15642,2.2925
15643,4.7189
15730,4.1797
15731,3.6405
15732,2.8317
15733,8.4932
15734,7.4148
15735,7.6844
15736,7.6844
15737,7.4148
15738,8.4932
15739,1.7534
15748,7.4148
15754,7.954
15755,6.8756
15772,1.2142
15809,1.4838
15853,20.895
15854,67.804
15855,123.61
15856,174.29
15857,238.19
15858,299.12
15859,360.31
15860,426.36
15861,493.49
15862,548.22
15863,595.94
15864,641.5
15865,668.19
15866,699.19
15867,719.14
15868,729.93
15869,715.64
15870,705.93
15871,683.02
15872,657.41
15873,624.79
15874,590.82
15875,564.67
15876,555.23
15877,546.6
15878,537.71
15879,520.45
15880,494.3
15881,451.44
15882,401.29
15883,351.69
15884,301.54
15885,253.01
15886,211.77
15887,172.41
15888,137.36
15889,99.616
15890,74.005
15891,42.192
15892,17.929
16302,1.2142
16304,2.5621
16305,7.4148
16307,1.2142
16313,1.2142
16328,7.4148
16329,8.7628
16330,8.4932
16331,8.4932
16332,8.4932
16333,8.2236
16334,16.311
16335,16.581
16336,16.581
16337,24.669
16338,24.399
16339,24.399
16340,24.669
16341,23.59
16342,15.772
16343,16.581
16344,16.042
16345,16.581
16346,14.424
16347,7.4148
16348,8.4932
16349,8.2236
16350,8.2236
16351,8.2236
16352,8.2236
16353,8.2236
16354,8.4932
16355,7.1452
16356,13.346
16357,11.728
16358,12.807
16359,11.189
16360,13.076
16361,10.92
16362,12.807
16363,15.772
16364,22.782
16365,17.929
16366,21.703
16367,24.669
16368,23.86
16369,23.86
16370,24.669
16371,16.851
16372,15.772
16373,16.042
16374,15.772
16375,15.772
16376,16.042
16377,7.6844
16378,15.772
16379,7.4148
16380,7.6844
16381,8.4932
16382,15.503
16383,7.1452
16384,7.6844
16385,8.7628
16386,16.581
16387,15.503
16388,15.772
16389,15.772
16390,15.772
16391,15.772
16392,15.772
16393,15.503
16394,15.772
16395,14.963
16396,18.468
16397,28.174
16398,32.217
16399,31.409
16400,31.409
16401,31.678
16402,30.6
16403,36.801
16404,39.766
16405,40.036
16406,33.835
16407,29.791
16408,38.418
16409,33.296
16410,30.6
16411,31.948
16412,24.13
16413,22.782
16414,23.051
16415,22.782
16416,23.321
16417,15.233
16418,14.963
16419,14.963
16420,23.051
16421,22.782
16422,23.051
16423,22.782
16424,23.59
16425,31.678
16426,29.252
16427,23.321
16428,31.678
16429,30.33
16430,31.139
16431,28.443
16432,22.243
16433,20.895
16434,10.111
16435,8.7628
16436,15.503
16437,14.155
16438,14.424
16439,14.424
16440,14.424
16441,14.694
16442,13.346
16443,20.086
16444,18.199
16445,12.537
16446,20.086
16447,22.782
16448,22.243
16449,22.243
16450,22.512
16451,21.164
16452,29.791
16453,22.782
16454,29.522
16455,23.321
16456,21.973
16457,22.243
16458,22.243
16459,21.973
16460,30.061
16461,21.973
16462,30.061
16463,21.973
16464,30.061
16465,21.164
16466,21.973
16467,21.703
16468,21.703
16469,22.243
16470,20.355
16471,12.537
16472,16.042
16473,22.512
16474,21.434
16475,21.703
16476,21.703
16477,21.703
16478,21.703
16479,21.703
16480,21.703
16481,21.703
16482,21.434
16483,21.703
16484,21.164
16485,22.512
16486,15.233
16487,19.007
16488,16.581
16489,12.537
16490,13.346
16491,13.615
16492,12.268
16493,20.895
16494,14.155
16495,19.816
16496,22.243
16497,13.885
16498,12.537
16499,20.895
16500,21.164
16501,21.434
16502,13.076
16503,21.434
16504,28.982
16505,21.164
16506,28.982
16507,21.164
16508,29.791
16509,28.713
16510,28.982
16511,29.252
16512,27.365
16513,20.086
16514,21.164
16515,20.895
16516,20.895
16517,20.895
16518,20.625
16519,21.434
16520,17.39
16521,11.728
16522,12.807
16523,12.537
16524,12.537
16525,12.537
16526,12.537
16527,12.537
16528,12.537
16529,12.807
16530,11.728
16531,18.468
16532,21.164
16533,20.355
16534,20.625
16535,20.625
16536,20.625
16537,20.355
16538,20.355
16539,20.355
16540,20.355
16541,20.895
16542,12.268
16543,20.355
16544,12.268
16545,12.268
16546,12.537
16547,20.895
16548,19.547
16549,11.728
16550,11.998
16551,13.615
16552,19.547
16553,11.459
16554,11.728
16555,14.694
16556,18.468
16557,13.346
16558,21.164
16559,19.816
16560,20.086
16561,20.086
16562,20.086
16563,20.086
16564,19.816
16565,20.895
16566,15.233
16567,12.268
16568,6.0669
16569,9.0324
16570,7.6844
16571,2.023
16572,10.65
16573,6.3365
16574,3.1013
16575,4.1797
16576,3.1013
16577,10.38
16578,11.998
16579,11.728
16580,11.728
16581,11.728
16582,11.728
16583,11.998
16584,3.9101
16585,3.6405
16589,3.6405
16598,4.9885
16599,1.2142
16602,5.5277
16605,4.9885
16606,2.5621
16607,7.954
16608,12.537
16609,11.459
16610,11.728
16611,11.728
16612,11.728
16613,11.728
16614,11.728
16615,11.728
16616,11.728
16617,11.728
16618,11.728
16619,11.728
16620,11.728
16621,11.728
16622,11.459
16623,11.728
16624,11.189
16625,19.277
16626,19.547
16627,19.547
16628,19.547
16629,27.904
16630,27.095
16631,19.007
16632,19.547
16633,19.547
16634,18.468
16635,10.65
16636,11.459
16637,11.189
16638,11.459
16639,11.189
16640,11.189
16641,11.189
16642,11.459
16643,10.38
16644,14.963
16645,16.851
16646,10.111
16647,11.459
16648,11.189
16649,10.92
16650,12.268
16651,5.5277
16652,7.4148
16653,11.998
16654,10.92
16655,11.459
16656,10.111
16657,17.12
16658,19.277
16659,19.816
16660,12.268
16661,11.459
16662,3.3709
16663,9.8412
16664,11.189
16665,11.189
16666,3.3709
16667,2.8317
16668,2.8317
16669,2.8317
16670,2.8317
16671,2.8317
16672,3.6405
16673,10.65
16674,3.1013
16675,11.728
16676,11.189
16677,9.302
16678,3.6405
16679,11.728
16680,11.189
16681,8.2236
16682,4.1797
16683,11.998
16684,10.38
16685,11.728
16686,7.6844
16687,2.023
16688,3.1013
16689,2.8317
16690,2.8317
16691,2.8317
16692,2.8317
16693,2.8317
16694,2.8317
16695,2.8317
16696,2.8317
16697,2.8317
16698,2.8317
16699,2.8317
16700,2.8317
16701,2.8317
16702,2.5621
16703,3.1013
16704,2.023
16705,10.65
16706,2.8317
16707,10.38
16708,3.1013
16709,2.5621
16710,2.5621
16711,2.5621
16740,38.418
16741,88.832
16742,151.38
16743,210.42
16744,275.39
16745,332.81
16746,405.34
16747,464.38
16748,529.08
16749,587.04
16750,636.65
16751,669.54
16752,693.53
16753,717.26
16754,724.53
16755,722.92
16756,704.58
16757,678.43
16758,643.39
16759,601.06
16760,560.08
16761,529.35
16762,517.22
16763,516.14
16764,505.09
16765,484.33
16766,462.49
16767,438.77
16768,393.47
16769,356.54
16770,320.68
16771,277.28
16772,239.8
16773,207.45
16774,174.29
16775,140.06
16776,112.83
16777,82.901
16778,53.515
16779,34.913
16780,18.738
16781,2.2925
17064,2.023
17065,2.023
17070,2.023
17071,1.2142
17072,1.4838
17073,1.2142
17074,1.4838
17076,7.954
17077,9.5716
17078,9.8412
17079,2.2925
17080,1.2142
17081,1.4838
17082,1.2142
17083,1.2142
17084,1.2142
17085,1.4838
17086,1.4838
17087,9.302
17088,0.94458
17089,1.4838
17090,1.2142
17091,1.2142
17092,2.2925
17093,10.111
17094,9.302
17095,9.302
17096,9.5716
17097,8.7628
17098,11.998
17099,15.772
17100,8.2236
17101,9.302
17102,9.8412
17103,6.3365
17105,6.3365
17106,4.9885
17107,5.2581
17108,5.5277
17109,1.2142
17112,2.023
17113,0.94458
17114,0.94458
17115,2.2925
17118,1.7534
17119,0.94458
17120,1.2142
17121,1.2142
17122,1.2142
17124,8.7628
17125,9.302
17126,9.0324
17127,9.302
17128,1.2142
17129,9.302
17131,1.2142
17132,1.2142
17133,1.2142
17134,1.2142
17135,0.94458
17136,1.4838
17141,2.023
17142,0.94458
17143,1.2142
17144,1.2142
17146,4.7189
17147,10.111
17148,9.0324
17149,9.0324
17150,10.111
17151,4.4493
17153,1.2142
17154,0.94458
17155,1.4838
17157,7.954
17158,3.3709
17160,1.4838
17162,7.954
17163,9.8412
17164,1.7534
17165,0.94458
17166,0.94458
17167,0.94458
17168,0.94458
17169,0.94458
17170,1.2142
17171,9.302
17172,9.0324
17173,9.0324
17174,9.0324
17175,9.302
17176,7.6844
17177,1.7534
17178,10.111
17179,8.7628
17180,9.0324
17181,9.0324
17182,9.0324
17183,8.7628
17184,9.8412
17185,5.2581
17186,3.3709
17187,10.111
17188,8.7628
17189,9.0324
17190,8.7628
17191,9.0324
17192,7.954
17193,13.615
17194,17.659
17195,16.581
17196,17.929
17197,11.189
17198,8.2236
17199,9.0324
17200,8.7628
17201,8.7628
17202,8.7628
17203,8.7628
17204,8.7628
17205,8.7628
17206,8.7628
17207,8.4932
17208,16.311
17209,16.851
17210,8.7628
17211,8.7628
17212,8.7628
17213,8.4932
17214,9.302
17215,17.12
17216,16.581
17217,16.851
17218,16.581
17219,16.581
17220,16.581
17221,16.581
17222,16.581
17223,16.581
17224,16.581
17225,16.581
17226,16.581
17227,16.581
17228,16.311
17229,17.12
17230,12.807
17231,6.8756
17232,12.807
17233,17.12
17234,16.311
17235,16.311
17236,16.311
17237,16.311
17238,16.311
17239,16.311
17240,16.311
17241,16.311
17242,16.311
17243,16.311
17244,16.311
17245,16.311
17246,16.311
17247,16.042
17248,16.311
17249,15.772
17250,24.13
17251,16.311
17252,16.042
17253,24.13
17254,24.13
17255,24.13
17256,23.59
17257,15.233
17258,17.12
17259,24.669
17260,23.59
17261,25.208
17262,33.296
17263,29.252
17264,25.747
17265,30.6
17266,22.782
17267,23.86
17268,24.399
17269,19.816
17270,18.199
17271,24.669
17272,24.13
17273,19.547
17274,14.694
17275,15.772
17276,15.503
17277,15.503
17278,15.503
17279,15.772
17280,14.694
17281,21.434
17282,23.86
17283,23.321
17284,23.59
17285,23.321
17286,23.321
17287,23.321
17288,23.321
17289,23.321
17290,23.321
17291,23.321
17292,23.321
17293,23.321
17294,23.321
17295,23.321
17296,22.782
17297,14.694
17298,15.233
17299,14.963
17300,14.963
17301,14.963
17302,14.963
17303,14.694
17304,16.851
17305,23.59
17306,23.321
17307,20.625
17308,14.155
17309,14.424
17310,17.929
17311,23.59
17312,23.321
17313,19.277
17314,13.885
17315,14.963
17316,14.694
17317,14.694
17318,14.694
17319,14.694
17320,14.694
17321,14.424
17322,15.772
17323,7.6844
17324,12.537
17325,14.155
17326,21.973
17327,15.503
17328,21.703
17329,15.772
17330,14.155
17331,14.694
17332,14.424
17333,14.424
17334,14.424
17335,14.424
17336,14.424
17337,14.694
17338,22.782
17339,21.703
17340,13.885
17341,14.155
17342,15.503
17343,21.973
17344,12.807
17345,16.581
17346,21.164
17347,13.615
17348,12.268
17349,5.2581
17350,5.7973
17351,9.0324
17352,14.963
17353,13.885
17354,14.424
17355,13.076
17356,19.277
17357,17.659
17358,18.468
17359,18.468
17360,13.076
17361,14.155
17362,14.155
17363,13.615
17364,14.963
17365,7.1452
17366,11.998
17367,13.615
17368,21.164
17369,15.503
17370,13.615
17371,13.885
17372,13.885
17373,13.885
17374,13.885
17375,13.885
17376,13.615
17377,21.973
17378,21.703
17379,13.885
17380,22.243
17381,21.434
17382,22.512
17383,30.33
17384,29.522
17385,29.791
17386,29.791
17387,29.791
17388,29.791
17389,29.522
17390,30.061
17391,26.826
17392,21.164
17393,19.007
17394,11.459
17395,17.929
17396,17.929
17397,15.503
17398,25.747
17399,34.374
17400,37.34
17401,41.114
17402,51.089
17403,54.055
17404,52.437
17405,58.907
17406,62.142
17407,59.986
17408,68.073
17409,63.49
17410,54.324
17411,46.506
17412,37.879
17413,30.061
17414,14.424
17452,2.5621
17453,5.7973
17454,4.9885
17455,5.2581
17456,5.2581
17457,4.9885
17458,5.5277
17460,5.2581
17461,5.2581
17462,5.2581
17463,5.2581
17464,5.2581
17465,5.2581
17466,4.9885
17467,6.0669
17468,14.155
17469,11.459
17470,4.4493
17471,5.2581
17472,4.9885
17473,4.9885
17474,4.9885
17475,5.2581
17476,4.4493
17477,8.2236
17478,13.885
17479,12.807
17480,13.076
17481,13.076
17482,12.807
17483,13.885
17484,8.4932
17485,4.1797
17486,5.2581
17487,4.9885
17488,4.9885
17489,5.2581
17490,4.1797
17491,11.189
17492,13.076
17493,13.615
17494,6.0669
17495,5.2581
17499,4.9885
17501,4.7189
17502,4.9885
17503,4.9885
17504,12.807
17505,4.9885
17506,12.807
17507,4.1797
17508,4.9885
17509,4.9885
17510,3.6405
17531,3.6405
17535,4.1797
17577,47.584
17578,95.302
17579,159.74
17580,217.97
17581,282.67
17582,348.45
17583,414.23
17584,471.66
17585,536.9
17586,594.05
17587,634.49
17588,674.66
17589,706.2
17590,730.2
17591,752.3
17592,747.72
17593,730.47
17594,710.79
17595,675.47
17596,642.31
17597,608.88
17598,573.29
17599,549.03
17600,553.07
17601,546.6
17602,524.77
17603,499.42
17604,472.19
17605,430.95
17606,377.57
17607,338.48
17608,296.96
17609,249.78
17610,209.88
17611,167.55
17612,130.35
17613,104.47
17614,73.465
17615,45.697
17616,21.973
17988,0.94458
17990,1.2142
17993,0.94458
17995,7.6844
17996,1.2142
18033,1.4838
18036,0.94458
18040,0.94458
18049,1.2142
18053,2.5621
18054,7.6844
18056,1.4838
18059,1.7534
18074,6.6061
18075,9.0324
18076,8.4932
18077,8.7628
18078,7.954
18079,15.503
18080,17.39
18081,9.0324
18082,8.4932
18083,8.4932
18084,8.7628
18087,8.7628
18088,8.4932
18089,8.4932
18090,8.4932
18091,8.4932
18092,8.4932
18093,8.2236
18094,8.7628
18095,6.3365
18096,1.4838
18097,9.302
18098,8.2236
18099,7.954
18100,10.92
18101,17.39
18102,16.042
18103,16.581
18104,15.503
18105,20.895
18106,21.164
18107,15.233
18108,16.581
18109,16.042
18110,17.12
18111,11.189
18112,7.6844
18113,8.2236
18114,8.2236
18115,7.954
18116,9.0324
18117,1.7534
18122,6.8756
18123,15.772
18124,16.311
18125,16.311
18126,16.042
18127,24.13
18128,16.042
18129,15.772
18130,7.6844
18131,8.2236
18132,8.2236
18133,7.1452
18136,1.2142
18137,8.7628
18138,7.6844
18139,8.2236
18140,7.1452
18141,10.92
18142,14.155
18143,6.8756
18144,8.2236
18145,7.954
18146,7.954
18147,7.954
18148,7.954
18149,7.6844
18150,8.7628
18151,3.1013
18154,4.9885
18155,8.7628
18156,6.6061
18157,14.963
18158,9.302
18159,13.885
18160,16.311
18161,15.772
18162,15.772
18163,15.772
18164,15.772
18165,15.772
18166,15.772
18167,16.042
18168,7.6844
18169,15.772
18170,7.4148
18171,7.6844
18172,7.6844
18173,7.6844
18174,7.6844
18175,7.6844
18176,7.4148
18177,9.0324
18178,16.311
18179,15.233
18180,16.311
18181,12.807
18182,9.5716
18183,14.155
18184,6.3365
18185,7.6844
18186,7.4148
18187,7.4148
18188,7.4148
18189,7.4148
18190,7.4148
18191,7.4148
18192,7.4148
18193,7.4148
18194,7.6844
18195,6.6061
18196,12.807
18197,16.042
18198,15.503
18199,14.694
18200,21.703
18201,23.86
18202,23.321
18203,23.321
18204,23.321
18205,23.321
18206,23.321
18207,23.321
18208,23.051
18209,31.139
18210,23.321
18211,23.051
18212,14.694
18213,6.8756
18214,7.1452
18215,6.8756
18216,7.1452
18217,6.0669
18222,0.94458
18223,7.6844
18224,6.8756
18225,6.3365
18226,10.38
18227,12.807
18228,5.7973
18229,7.1452
18230,6.8756
18231,6.8756
18232,7.1452
18233,6.0669
18234,11.459
18235,15.772
18236,14.424
18237,15.772
18238,9.302
18239,6.6061
18240,6.0669
18241,13.615
18242,9.0324
18243,5.5277
18244,13.615
18245,15.233
18246,14.694
18247,14.694
18248,14.963
18249,14.424
18250,22.782
18251,14.963
18252,22.782
18253,30.6
18254,22.782
18255,30.87
18256,22.243
18257,22.243
18258,13.076
18259,6.3365
18260,4.9885
18262,7.4148
18263,6.3365
18264,6.6061
18265,6.3365
18266,6.6061
18267,6.6061
18268,6.3365
18269,6.6061
18270,5.7973
18271,10.111
18272,15.233
18273,14.963
18274,10.111
18275,5.5277
18276,6.6061
18277,6.3365
18278,6.3365
18279,6.3365
18280,6.3365
18281,6.3365
18282,6.6061
18283,5.5277
18284,12.807
18285,14.963
18286,13.615
18287,21.434
18288,22.512
18289,22.782
18290,14.694
18291,14.424
18292,6.3365
18293,6.3365
18296,6.3365
18297,6.0669
18298,6.0669
18299,6.3365
18300,5.2581
18316,2.2925
18317,7.1452
18318,5.7973
18319,7.4148
18321,2.8317
18322,7.954
18324,3.9101
18325,6.8756
18326,6.0669
18327,6.3365
18328,6.0669
18329,6.3365
18330,5.7973
18331,13.615
18332,14.424
18333,13.885
18334,21.973
18335,22.243
18336,22.243
18337,30.061
18338,21.703
18339,22.782
18340,29.791
18341,21.703
18342,21.164
18343,13.076
18344,14.424
18345,12.268
18346,4.9885
18347,6.0669
18348,5.7973
18349,5.5277
18350,7.6844
18351,18.468
18352,18.738
18353,16.851
18354,19.816
18355,10.92
18356,22.782
18357,27.095
18358,20.625
18359,21.973
18360,21.703
18361,21.434
18362,22.782
18363,15.233
18364,18.738
18365,23.051
18366,14.963
18367,13.885
18368,7.1452
18369,5.2581
18370,5.5277
18371,5.5277
18372,5.5277
18373,4.9885
18374,13.076
18375,13.885
18376,5.5277
18377,5.5277
18378,5.5277
18379,5.5277
18380,5.2581
18381,6.0669
18382,13.885
18383,13.346
18384,13.076
18385,14.694
18386,21.973
18387,21.703
18388,19.547
18389,12.537
18390,13.615
18391,13.346
18392,13.346
18393,13.346
18394,13.346
18395,13.346
18396,12.537
18397,16.851
18398,22.782
18399,16.851
18400,12.268
18401,14.155
18402,8.2236
18403,4.4493
18404,5.2581
18405,5.2581
18406,4.1797
18407,11.189
18408,13.615
18409,13.076
18410,13.076
18411,13.076
18412,13.076
18413,12.807
18414,13.615
18415,4.9885
18416,12.807
18417,4.9885
18418,13.076
18419,4.9885
18420,4.9885
18421,4.9885
18422,4.9885
18423,4.9885
18424,4.7189
18425,6.0669
18426,12.537
18427,3.9101
18428,4.9885
18429,5.2581
18430,3.3709
18454,16.042
18455,65.378
18456,122.26
18457,179.69
18458,244.93
18459,310.71
18460,376.22
18461,441.73
18462,507.24
18463,572.48
18464,628.29
18465,668.19
18466,708.36
18467,738.82
18468,762.82
18469,784.92
18470,787.89
18471,777.11
18472,754.73
18473,722.65
18474,693.53
18475,650.13
18476,606.99
18477,573.56
18478,561.7
18479,557.12
18480,553.88
18481,541.75
18482,516.14
18483,477.86
18484,430.95
18485,380.8
18486,330.12
18487,285.91
18488,243.85
18489,209.07
18490,169.71
18491,134.12
18492,100.69
18493,75.083
18494,42.732
18495,23.051
18496,7.954
18769,1.2142
18770,0.94458
18786,8.2236
18787,1.2142
18788,7.1452
18789,15.772
18790,24.13
18791,24.669
18792,24.669
18793,16.581
18794,16.311
18795,8.2236
18796,8.2236
18799,1.2142
18800,7.954
18806,2.5621
18807,8.4932
18808,11.189
18809,15.233
18810,4.1797
18818,5.2581
18819,9.0324
18820,8.4932
18821,7.1452
18822,14.963
18823,10.92
18824,7.6844
18825,8.4932
18826,8.2236
18827,8.2236
18828,8.4932
18829,7.6844
18830,15.233
18831,16.851
18832,8.4932
18833,8.2236
18834,7.954
18835,16.311
18836,7.954
18843,1.2142
18844,8.7628
18845,7.954
18846,7.954
18847,8.4932
18848,5.7973
18851,2.8317
18852,9.302
18853,6.8756
18854,12.807
18855,12.268
18856,11.728
18857,12.807
18858,6.8756
18859,8.2236
18860,7.954
18861,7.6844
18862,8.7628
18863,2.5621
18868,6.6061
18869,8.2236
18870,7.954
18871,7.954
18872,7.954
18873,7.954
18874,7.954
18875,7.954
18876,7.954
18878,7.954
18879,7.954
18880,7.4148
18888,0.94458
18893,2.8317
18894,8.4932
18895,8.4932
18896,4.1797
18899,4.1797
18900,8.7628
18901,7.6844
18902,7.954
18903,7.954
18904,7.6844
18905,8.4932
18906,2.2925
18908,7.1452
18909,0.94458
18910,6.0669
18911,8.2236
18912,7.6844
18913,7.6844
18914,7.6844
18915,7.6844
18916,7.954
18922,8.2236
18923,7.1452
18928,1.2142
18929,8.4932
18930,7.4148
18931,7.6844
18932,7.6844
18933,7.6844
18934,7.6844
18935,7.6844
18936,7.6844
18937,7.6844
18938,7.6844
18939,7.6844
18940,7.6844
18941,7.6844
18942,7.954
18943,6.8756
18944,12.807
18945,16.042
18946,16.311
18947,9.8412
18948,7.1452
18949,7.6844
18950,7.6844
18951,6.8756
18952,14.155
18953,16.311
18954,9.0324
18964,8.4932
18965,15.233
18966,6.6061
18967,8.7628
18968,16.042
18969,15.233
18970,15.503
18971,16.042
18972,13.346
18973,6.6061
18974,7.6844
18975,7.4148
18976,6.8756
18977,10.38
18978,16.311
18979,15.233
18980,15.503
18981,15.503
18982,15.233
18983,16.042
18984,10.92
18985,6.0669
18986,11.459
18987,21.973
18988,18.199
18989,14.694
18990,15.503
18991,15.233
18992,15.233
18993,15.503
18994,14.424
18995,22.782
18996,16.311
18997,14.424
18998,22.512
18999,23.321
19000,23.051
19001,23.051
19002,23.051
19003,31.139
19004,22.782
19005,23.321
19006,22.243
19007,15.233
19008,22.782
19009,13.615
19010,16.581
19011,21.973
19012,13.615
19013,15.503
19014,12.268
19015,7.6844
19016,18.199
19017,23.59
19018,21.973
19019,26.017
19020,31.409
19021,31.139
19022,26.826
19023,21.973
19024,22.512
19025,23.59
19026,16.581
19027,19.816
19028,17.39
19029,18.738
19030,24.13
19031,16.042
19032,14.694
19033,8.2236
19034,5.7973
19035,6.3365
19036,6.3365
19037,5.7973
19038,13.346
19039,14.424
19040,14.155
19041,14.694
19042,6.0669
19043,22.243
19044,22.243
19045,21.973
19046,13.885
19047,13.885
19048,5.7973
19049,5.7973
19050,7.954
19051,23.59
19052,21.703
19053,22.243
19054,21.973
19055,21.973
19056,21.973
19057,21.973
19058,21.973
19059,22.512
19060,19.007
19061,13.076
19062,13.885
19063,14.694
19064,9.0324
19065,9.302
19066,13.885
19067,18.199
19068,22.512
19069,21.703
19070,21.973
19071,21.973
19072,21.434
19073,22.512
19074,15.503
19075,13.346
19076,13.076
19077,20.355
19078,21.973
19079,21.703
19080,21.703
19081,21.703
19082,21.703
19083,21.434
19084,21.434
19085,21.434
19086,21.434
19087,21.434
19088,21.434
19089,21.434
19090,21.434
19091,21.434
19092,20.625
19093,11.459
19094,4.4493
19095,6.8756
19096,13.885
19097,13.076
19098,13.346
19099,13.346
19100,13.346
19101,13.346
19102,13.076
19103,13.346
19104,12.268
19105,17.659
19106,17.929
19107,12.537
19108,12.268
19109,18.738
19110,15.772
19111,18.468
19112,16.042
19113,16.851
19114,27.634
19115,29.522
19116,28.713
19117,29.791
19118,22.243
19119,21.164
19120,13.885
19121,12.537
19122,12.807
19123,12.807
19124,12.807
19125,12.537
19126,20.625
19127,20.895
19128,20.625
19129,12.268
19130,13.346
19131,20.625
19132,11.998
19133,12.807
19134,12.537
19135,12.537
19136,13.076
19137,10.92
19138,3.9101
19139,4.1797
19140,6.6061
19141,13.615
19142,11.728
19143,15.503
19144,21.434
19145,20.086
19146,21.434
19147,16.581
19148,12.268
19149,8.4932
19150,2.5621
19151,10.111
19152,8.2236
19153,3.3709
19154,5.5277
19157,11.189
19158,11.728
19159,19.547
19160,14.155
19161,11.998
19162,12.537
19163,11.728
19164,19.547
19165,20.355
19166,20.355
19167,20.355
19168,20.355
19169,20.355
19170,20.086
19171,20.086
19172,20.086
19173,20.355
19174,19.277
19175,11.189
19176,13.346
19177,20.625
19178,20.355
19179,18.468
19180,11.189
19181,12.268
19182,11.728
19183,12.537
19184,9.0324
19185,3.1013
19186,3.9101
19187,3.9101
19188,3.1013
19189,7.6844
19190,12.537
19191,11.728
19192,11.728
19193,12.807
19194,6.0669
19195,8.2236
19196,13.615
19197,4.9885
19198,9.302
19199,12.268
19200,11.998
19201,10.92
19202,19.277
19203,13.346
19204,11.189
19205,12.537
19206,3.9101
19207,11.189
19208,11.459
19209,19.547
19210,19.816
19211,19.547
19212,11.459
19213,11.189
19214,3.3709
19215,3.1013
19218,4.1797
19219,3.3709
19220,3.6405
19221,3.6405
19222,3.6405
19223,3.3709
19224,3.9101
19225,1.4838
19232,4.4493
19233,3.3709
19234,3.6405
19235,3.6405
19236,3.6405
19237,3.3709
19238,4.4493
19250,3.3709
19251,3.6405
19252,11.728
19253,19.547
19254,11.728
19255,19.816
19256,10.92
19257,12.537
19258,20.355
19259,18.468
19260,10.92
19261,11.728
19262,11.459
19263,11.459
19264,11.998
19265,9.0324
19266,2.8317
19267,3.1013
19268,6.3365
19269,11.728
19270,14.424
19271,20.355
19272,19.007
19273,20.625
19274,14.155
19275,15.233
19276,20.355
19277,19.007
19278,19.277
19279,19.547
19280,18.468
19281,24.938
19282,28.713
19283,20.895
19284,18.738
19285,19.277
19286,19.007
19287,19.816
19288,11.998
19289,10.65
19290,11.459
19291,3.1013
19292,10.65
19293,10.92
19294,10.92
19295,10.92
19296,10.92
19297,10.92
19298,10.92
19299,11.189
19300,10.111
19301,1.2142
19304,5.7973
19305,9.5716
19306,2.5621
19309,3.9101
19310,2.8317
19311,2.2925
19312,6.3365
19313,11.728
19314,10.38
19315,11.728
19316,6.6061
19317,2.023
19318,3.3709
19319,2.023
19320,7.954
19321,11.459
19322,10.38
19323,11.728
19324,4.4493
19325,3.1013
19328,1.7534
19329,3.1013
19330,2.8317
19331,2.8317
19332,2.8317
19333,2.8317
19334,2.8317
19335,2.8317
19343,3.3709
19344,2.5621
19345,2.8317
19346,2.5621
19347,4.1797
19348,14.424
19349,17.12
19350,9.8412
19351,10.92
19352,11.189
19353,7.6844
19380,48.932
19381,90.719
19382,148.95
19383,207.45
19384,271.89
19385,319.87
19386,381.61
19387,454.67
19388,519.91
19389,581.65
19390,628.83
19391,677.09
19392,710.79
19393,734.24
19394,753.92
19395,752.57
19396,743.68
19397,727.23
19398,700.81
19399,672.5
19400,632.6
19401,594.86
19402,564.4
19403,556.04
19404,551.46
19405,543.37
19406,522.88
19407,497.0
19408,467.34
19409,420.43
19410,370.02
19411,319.6
19412,277.01
19413,235.76
19414,193.7
19415,160.01
19416,127.11
19417,93.685
19418,68.882
19419,35.992
19420,11.459
19707,6.3365
19708,7.4148
19709,7.1452
19710,7.4148
19726,2.2925
19727,8.2236
19728,7.1452
19729,7.4148
19730,7.4148
19731,7.4148
19732,7.4148
19733,7.4148
19734,7.4148
19735,6.8756
19736,8.4932
19737,0.94458
19738,4.1797
19739,7.954
19740,6.8756
19741,8.2236
19745,6.3365
19746,6.8756
19747,14.424
19748,15.503
19749,15.233
19750,15.233
19751,14.963
19752,23.321
19753,14.963
19754,14.963
19755,6.6061
19756,7.954
19757,14.694
19758,6.6061
19759,6.3365
19762,7.6844
19763,6.6061
19764,7.6844
19765,4.7189
19774,3.3709
19775,7.954
19776,6.6061
19777,8.2236
19778,0.94458
19779,3.6405
19780,8.4932
19781,0.94458
19786,6.6061
19788,6.0669
19789,7.1452
19790,7.4148
19794,7.1452
19797,6.8756
19808,10.65
19809,15.503
19810,15.503
19811,11.728
19812,6.0669
19813,7.1452
19814,7.6844
19815,3.3709
19852,2.023
19853,7.954
19854,6.6061
19855,7.954
19856,3.1013
19862,4.4493
19863,7.6844
19864,6.8756
19865,7.1452
19866,7.1452
19867,7.1452
19868,7.1452
19869,7.1452
19870,7.1452
19871,7.1452
19872,7.1452
19873,6.8756
19874,6.8756
19875,6.8756
19876,6.8756
19877,6.8756
19878,6.8756
19879,6.8756
19880,6.8756
19881,6.8756
19882,7.6844
19883,15.772
19884,13.615
19885,6.3365
19886,7.1452
19887,6.8756
19888,6.3365
19889,9.302
19890,13.615
19891,5.7973
19892,7.1452
19893,6.8756
19894,6.8756
19895,7.1452
19896,6.0669
19897,10.65
19898,15.772
19899,14.424
19900,15.772
19901,9.8412
19902,6.6061
19903,4.9885
19904,18.738
19905,17.12
19906,20.625
19907,17.39
19908,14.155
19909,14.694
19910,15.233
19911,7.954
19912,6.3365
19913,6.6061
19914,6.3365
19915,7.1452
19917,6.3365
19918,6.6061
19920,6.6061
19921,7.1452
19922,23.321
19923,22.512
19924,22.512
19925,23.86
19926,29.791
19927,23.321
19928,30.061
19929,21.164
19930,23.321
19931,20.086
19932,14.155
19933,11.998
19934,5.2581
19935,6.6061
19936,6.0669
19937,6.3365
19938,6.3365
19939,6.3365
19940,6.3365
19941,6.3365
19942,6.0669
19943,6.3365
19944,5.2581
19945,11.459
19946,14.963
19947,14.155
19948,14.155
19949,14.155
19950,14.155
19951,14.155
19952,14.155
19953,14.155
19954,14.424
19955,13.346
19956,21.973
19957,14.424
19958,21.703
19959,22.243
19960,21.973
19961,22.243
19962,30.061
19963,21.703
19964,22.243
19965,21.164
19966,13.346
19967,13.885
19968,14.155
19969,12.537
19970,4.9885
19971,6.0669
19972,5.2581
19973,7.4148
19974,17.12
19975,22.512
19976,20.895
19977,24.669
19978,31.409
19979,26.017
19980,20.895
19981,21.703
19982,22.243
19983,17.39
19984,11.728
19985,19.547
19986,17.12
19987,12.807
19988,13.885
19989,13.346
19990,14.424
19991,7.4148
19992,4.9885
19993,5.7973
19994,4.7189
19995,12.268
19996,13.615
19997,13.615
19998,12.807
19999,21.434
20000,13.885
20001,13.076
20002,21.434
20003,13.076
20004,13.346
20005,13.346
20006,13.076
20007,13.885
20008,21.973
20009,21.164
20010,21.434
20011,21.164
20012,21.703
20013,19.277
20014,12.268
20015,13.346
20016,13.076
20017,13.076
20018,13.076
20019,13.076
20020,13.076
20021,13.076
20022,13.076
20023,12.268
20024,17.12
20025,22.512
20026,16.042
20027,12.268
20028,13.076
20029,12.537
20030,13.885
20031,6.3365
20032,10.111
20033,14.424
20034,5.5277
20035,11.189
20036,12.537
20037,19.816
20038,20.895
20039,21.164
20040,13.346
20041,12.537
20042,12.807
20043,12.807
20044,12.807
20045,12.807
20046,12.537
20047,12.537
20048,12.537
20049,12.537
20050,12.537
20051,12.807
20052,12.268
20053,14.155
20054,21.434
20055,20.355
20056,20.355
20057,21.164
20058,17.929
20059,11.728
20060,11.998
20061,15.503
20062,21.434
20063,20.355
20064,20.086
20065,21.434
20066,14.963
20067,17.12
20068,16.042
20069,12.537
20070,6.0669
20071,10.111
20072,6.3365
20073,9.302
20074,12.807
20075,11.998
20076,12.268
20077,12.268
20078,11.459
20079,19.277
20080,20.355
20081,20.625
20082,12.268
20083,20.086
20084,12.268
20085,11.998
20086,12.268
20087,20.086
20088,11.728
20089,11.998
20090,12.537
20091,20.625
20092,20.086
20093,18.468
20094,13.076
20095,19.007
20096,12.537
20097,20.895
20098,19.816
20099,19.277
20100,22.512
20101,28.713
20102,27.634
20103,27.904
20104,27.634
20105,28.443
20106,23.86
20107,18.738
20108,19.816
20109,19.277
20110,20.355
20111,14.694
20112,9.8412
20113,18.199
20114,14.155
20115,11.189
20116,10.65
20117,18.738
20118,12.268
20119,18.468
20120,12.807
20121,11.189
20122,11.459
20123,11.459
20124,11.459
20125,11.459
20126,11.459
20127,11.459
20128,11.189
20129,11.189
20130,11.189
20131,11.189
20132,11.189
20133,11.189
20134,11.459
20135,10.111
20136,2.5621
20137,3.3709
20138,3.1013
20139,3.1013
20140,3.1013
20141,3.1013
20142,3.3709
20143,2.2925
20144,6.8756
20145,8.7628
20146,2.023
20147,3.3709
20148,3.1013
20149,3.1013
20150,3.3709
20151,2.2925
20152,8.2236
20153,11.728
20154,10.92
20155,11.189
20156,11.189
20157,11.189
20158,11.189
20159,11.189
20160,10.92
20161,11.728
20162,3.9101
20163,2.8317
20164,2.8317
20165,3.3709
20181,3.9101
20182,3.1013
20183,2.5621
20184,5.7973
20185,11.728
20186,11.728
20187,6.6061
20188,6.8756
20189,7.4148
20190,6.0669
20191,11.998
20192,10.65
20193,11.189
20194,10.111
20195,16.042
20196,20.625
20197,12.268
20198,16.311
20199,20.355
20200,12.537
20201,10.38
20202,11.189
20203,10.111
20204,18.468
20205,11.728
20206,10.65
20207,10.65
20208,18.468
20209,19.007
20210,18.738
20211,18.738
20212,10.65
20213,19.277
20214,18.738
20215,18.738
20216,18.738
20217,19.007
20218,17.659
20219,9.5716
20220,12.807
20221,17.12
20222,11.459
20223,20.355
20224,15.233
20225,12.268
20226,20.355
20227,15.233
20228,9.8412
20229,10.65
20230,10.38
20231,10.111
20232,11.459
20233,4.9885
20234,7.1452
20235,6.6061
20237,7.954
20238,10.92
20239,10.38
20240,10.38
20241,10.65
20242,9.5716
20243,16.851
20244,19.547
20245,11.189
20246,10.65
20247,3.1013
20248,2.023
20249,2.2925
20250,2.2925
20251,2.023
20252,10.38
20253,10.111
20254,10.38
20255,10.38
20256,10.111
20257,10.111
20258,10.111
20259,10.111
20260,10.111
20261,10.111
20262,10.38
20263,9.5716
20264,12.268
20265,18.738
20266,18.738
20267,14.963
20268,11.998
20269,19.816
20270,14.694
20271,8.2236
20272,14.963
20273,13.885
20274,13.346
20275,18.738
20276,18.738
20277,12.268
20278,14.424
20279,18.468
20280,18.738
20281,11.189
20282,15.503
20283,18.199
20284,18.468
20285,11.189
20286,9.5716
20287,9.8412
20288,9.8412
20289,9.8412
20290,9.8412
20291,9.5716
20292,9.8412
20293,1.7534
20294,1.7534
20318,37.07
20319,90.18
20320,144.1
20321,201.52
20322,264.61
20323,330.66
20324,396.17
20325,461.41
20326,528.27
20327,580.03
20328,629.1
20329,670.62
20330,711.59
20331,737.74
20332,753.92
20333,762.01
20334,753.92
20335,736.67
20336,719.14
20337,685.44
20338,651.47
20339,609.96
20340,586.77
20341,578.41
20342,569.79
20343,560.08
20344,541.48
20345,512.9
20346,468.15
20347,417.74
20348,368.13
20349,317.72
20350,270.0
20351,231.99
20352,200.44
20353,163.24
20354,124.15
20355,94.494
20356,76.161
20357,50.28
20358,24.399
20359,10.111
20646,1.2142
20647,6.3365
20648,5.2581
20649,5.5277
20650,5.5277
20651,5.5277
20652,5.5277
20653,5.5277
20654,5.5277
20655,5.5277
20656,5.5277
20657,5.5277
20658,5.5277
20659,5.5277
20660,5.5277
20661,5.5277
20662,5.5277
20663,5.5277
20664,5.5277
20665,5.5277
20666,4.9885
20667,13.615
20668,5.5277
20669,13.615
20670,13.346
20671,13.615
20672,12.807
20673,5.5277
20674,14.155
20675,13.076
20676,13.615
20677,11.998
20678,4.7189
20679,5.5277
20680,5.2581
20681,5.2581
20682,5.2581
20683,5.2581
20684,5.2581
20685,5.2581
20686,5.5277
20687,4.4493
20688,9.0324
20689,14.155
20690,13.076
20691,13.346
20692,13.346
20693,13.076
20694,14.155
20695,7.954
20696,4.4493
20697,5.2581
20698,5.2581
20699,4.9885
20700,5.5277
20701,4.1797
20702,12.537
20703,6.8756
20704,3.3709
20705,20.355
20706,13.885
20707,13.346
20708,5.5277
20709,4.9885
20710,4.9885
20711,4.9885
20712,4.9885
20713,4.9885
20714,4.9885
20715,4.9885
20716,4.9885
20717,4.9885
20718,4.9885
20719,4.9885
20720,4.9885
20721,4.9885
20722,4.9885
20723,4.9885
20724,4.9885
20725,4.9885
20726,4.9885
20727,4.9885
20728,4.9885
20729,4.9885
20730,4.9885
20731,4.9885
20732,4.9885
20733,4.7189
20734,5.7973
20737,2.2925
20738,5.5277
20739,4.7189
20740,4.9885
20741,4.9885
20742,4.9885
20743,4.9885
20744,4.9885
20745,4.9885
20746,4.9885
20747,4.9885
20748,4.9885
20749,4.9885
20750,4.9885
20751,4.9885
20752,4.9885
20753,4.7189
20754,4.9885
20755,4.7189
20756,5.5277
20757,12.537
20758,4.1797
20759,4.9885
20760,4.7189
20761,4.7189
20762,4.7189
20763,4.7189
20764,4.7189
20765,4.7189
20766,4.9885
20767,3.9101
20768,8.4932
20769,9.8412
20770,7.1452
20771,13.885
20772,12.537
20773,12.537
20774,13.885
20775,7.4148
20776,8.4932
20777,14.424
20778,7.4148
20779,3.9101
20780,4.9885
20781,3.3709
20782,11.728
20783,6.0669
20784,10.65
20785,13.076
20786,12.537
20787,12.537
20788,12.537
20789,12.537
20790,12.537
20791,12.537
20792,12.537
20793,12.537
20794,12.537
20795,12.537
20796,12.537
20797,12.537
20798,12.268
20799,13.346
20800,20.086
20801,11.728
20802,12.537
20803,12.537
20804,11.998
20805,14.424
20806,20.895
20807,22.243
20808,30.061
20809,25.478
20810,19.277
20811,21.164
20812,16.851
20813,10.65
20814,16.042
20815,21.973
20816,14.694
20817,16.042
20818,21.164
20819,19.816
20820,20.086
20821,20.086
20822,20.086
20823,20.086
20824,20.086
20825,20.086
20826,20.086
20827,20.086
20828,20.086
20829,20.086
20830,19.816
20831,19.816
20832,19.816
20833,20.086
20834,11.998
20835,11.728
20836,11.998
20837,20.086
20838,19.816
20839,19.816
20840,19.816
20841,19.816
20842,19.816
20843,19.816
20844,19.547
20845,19.547
20846,19.547
20847,19.547
20848,20.355
20849,16.581
20850,13.615
20851,19.816
20852,23.321
20853,24.399
20854,22.512
20855,24.938
20856,17.659
20857,23.59
20858,29.252
20859,21.434
20860,24.669
20861,22.243
20862,23.86
20863,27.904
20864,27.904
20865,21.434
20866,18.738
20867,19.277
20868,19.007
20869,19.007
20870,19.007
20871,19.007
20872,19.007
20873,19.277
20874,18.738
20875,26.826
20876,27.095
20877,19.007
20878,27.095
20879,26.826
20880,26.826
20881,26.826
20882,26.826
20883,26.826
20884,26.826
20885,26.826
20886,26.826
20887,26.826
20888,26.556
20889,27.365
20890,23.59
20891,20.895
20892,24.938
20893,17.39
20894,18.738
20895,18.468
20896,18.468
20897,18.468
20898,18.468
20899,18.468
20900,18.468
20901,18.199
20902,19.007
20903,16.311
20904,30.061
20905,29.791
20906,25.478
20907,26.286
20908,27.365
20909,18.738
20910,25.208
20911,19.816
20912,17.12
20913,25.208
20914,26.826
20915,17.929
20916,26.017
20917,18.199
20918,17.929
20919,17.929
20920,17.929
20921,17.929
20922,17.929
20923,17.929
20924,17.929
20925,17.929
20926,17.929
20927,17.929
20928,17.929
20929,17.39
20930,19.816
20931,26.556
20932,25.478
20933,25.747
20934,25.747
20935,25.747
20936,25.747
20937,25.747
20938,25.208
20939,26.556
20940,20.355
20941,22.243
20942,20.895
20943,22.243
20944,21.164
20945,16.851
20946,16.581
20947,23.051
20948,25.478
20949,26.286
20950,17.929
20951,24.399
20952,18.199
20953,23.86
20954,25.478
20955,25.208
20956,25.208
20957,25.208
20958,25.208
20959,25.208
20960,25.208
20961,16.851
20962,17.12
20963,16.851
20964,16.851
20965,16.851
20966,16.851
20967,16.851
20968,16.851
20969,17.39
20970,14.963
20971,9.8412
20972,17.929
20973,16.581
20974,16.311
20975,19.277
20976,25.747
20977,24.669
20978,24.938
20979,24.669
20980,24.669
20981,24.669
20982,24.399
20983,25.478
20984,19.816
20985,15.772
20986,16.581
20987,16.851
20988,15.233
20989,23.321
20990,17.929
20991,23.051
20992,17.929
20993,22.512
20994,24.938
20995,24.13
20996,25.208
20997,16.581
20998,23.59
20999,24.669
21000,16.311
21001,16.311
21002,16.311
21003,24.13
21004,15.772
21005,16.311
21006,16.042
21007,16.851
21008,24.669
21009,23.86
21010,24.13
21011,24.13
21012,24.13
21013,24.13
21014,23.86
21015,23.86
21016,23.86
21017,23.86
21018,23.86
21019,23.86
21020,23.59
21021,24.938
21022,19.007
21023,19.816
21024,20.355
21025,14.963
21026,14.963
21027,20.625
21028,24.13
21029,24.399
21030,17.929
21031,14.963
21032,16.042
21033,14.424
21034,22.782
21035,17.12
21036,14.963
21037,15.772
21038,14.963
21039,22.782
21040,23.59
21041,23.86
21042,15.503
21043,23.321
21044,23.321
21045,15.233
21046,15.233
21047,15.233
21048,15.233
21049,15.233
21050,15.233
21051,15.233
21052,14.694
21053,17.12
21054,22.243
21055,14.155
21056,15.503
21057,14.963
21058,15.233
21059,14.963
21060,15.772
21061,11.728
21062,5.7973
21063,7.954
21064,3.1013
21070,4.1797
21071,7.6844
21072,6.8756
21073,6.8756
21074,6.8756
21075,7.1452
21076,6.0669
21077,13.615
21078,15.233
21079,14.963
21080,14.963
21081,14.963
21082,14.963
21083,14.963
21084,14.963
21085,14.963
21086,14.694
21087,14.694
21088,14.694
21089,14.694
21090,15.503
21091,23.321
21092,22.512
21093,22.782
21094,22.782
21095,22.782
21096,22.782
21097,22.782
21098,22.512
21099,22.512
21100,22.512
21101,22.512
21102,22.512
21103,22.782
21104,21.434
21105,27.365
21106,26.286
21107,26.556
21108,27.095
21109,21.434
21110,22.512
21111,22.243
21112,22.243
21113,22.243
21114,22.243
21115,22.512
21116,21.434
21117,28.713
21118,30.6
21119,30.061
21120,30.061
21121,30.061
21122,30.061
21123,30.33
21124,22.512
21125,21.703
21126,21.973
21127,13.885
21128,21.973
21129,21.703
21130,21.973
21131,21.703
21132,22.782
21133,29.522
21134,20.895
21135,21.973
21136,21.973
21137,20.086
21138,12.807
21139,13.885
21140,13.615
21141,13.615
21142,12.807
21143,16.581
21144,22.512
21145,21.434
21146,21.703
21147,21.434
21148,21.434
21149,21.434
21150,21.434
21151,21.434
21152,21.434
21153,21.434
21154,21.164
21155,21.703
21156,20.355
21157,28.174
21158,23.59
21159,20.625
21160,21.434
21161,20.895
21162,21.703
21163,13.885
21164,12.807
21165,13.076
21166,13.076
21167,13.076
21168,13.076
21169,13.076
21170,13.076
21171,13.076
21172,13.076
21173,13.076
21174,12.807
21175,13.076
21176,12.537
21177,14.155
21178,21.703
21179,20.625
21180,20.895
21181,20.895
21182,20.895
21183,20.355
21184,23.321
21185,30.33
21186,25.478
21187,19.816
21188,21.703
21189,16.581
21190,12.537
21191,8.7628
21216,21.434
21217,71.578
21218,120.64
21219,170.79
21220,230.91
21221,295.61
21222,351.42
21223,411.54
21224,476.78
21225,526.38
21226,570.6
21227,610.77
21228,636.38
21229,663.88
21230,674.39
21231,678.43
21232,673.31
21233,660.1
21234,638.8
21235,606.72
21236,578.95
21237,547.68
21238,523.69
21239,512.9
21240,511.02
21241,505.35
21242,490.26
21243,467.07
21244,434.45
21245,402.1
21246,354.11
21247,310.44
21248,277.28
21249,236.03
21250,202.33
21251,169.44
21252,136.28
21253,111.21
21254,78.318
21255,53.785
21256,29.252
21257,13.076
21555,4.4493
21556,7.4148
21558,1.2142
21559,0.94458
21560,0.94458
21561,0.94458
21562,0.94458
21563,0.94458
21564,0.94458
21565,1.2142
21567,6.3365
21568,4.9885
21570,1.2142
21571,0.94458
21572,0.94458
21573,1.2142
21575,7.1452
21576,9.302
21577,8.7628
21578,9.0324
21579,9.0324
21580,9.0324
21581,9.0324
21582,9.0324
21583,8.7628
21584,9.0324
21585,0.94458
21586,0.94458
21587,8.7628
21589,0.94458
21592,1.2142
21603,1.7534
21605,1.2142
21607,6.0669
21608,5.2581
21610,1.2142
21612,0.94458
21614,1.7534
21664,1.4838
21665,1.2142
21666,1.2142
21667,1.2142
21668,1.2142
21669,1.2142
21670,0.94458
21672,1.7534
21673,1.2142
21674,1.2142
21675,1.2142
21676,1.2142
21677,1.2142
21678,1.2142
21679,1.2142
21680,1.2142
21681,1.2142
21682,1.7534
21696,1.7534
21697,1.7534
21705,8.4932
21706,1.7534
21707,8.7628
21708,9.5716
21709,9.5716
21710,1.4838
21711,1.4838
21712,1.2142
21713,1.2142
21714,1.2142
21715,1.2142
21716,1.2142
21717,1.2142
21718,1.2142
21719,1.2142
21720,1.7534
21744,1.7534
21745,1.4838
21746,1.2142
21747,2.023
21749,0.94458
21750,1.7534
21752,1.4838
21754,1.7534
21755,1.2142
21756,2.2925
21757,9.0324
21758,1.7534
21759,9.302
21761,1.7534
21762,1.4838
21763,1.4838
21764,1.4838
21765,1.4838
21766,1.4838
21767,1.4838
21768,1.4838
21769,1.4838
21770,1.4838
21771,1.2142
21772,2.2925
21784,2.023
21785,1.2142
21786,2.2925
21789,1.7534
21790,1.4838
21791,1.4838
21792,1.4838
21793,1.4838
21794,1.4838
21795,1.2142
21797,1.4838
21808,2.5621
21809,1.2142
21810,2.2925
21869,0.94458
21870,2.5621
21871,2.2925
21872,2.2925
21873,2.2925
21874,2.2925
21875,2.2925
21876,2.2925
21877,2.2925
21878,2.2925
21879,2.2925
21880,2.2925
21881,1.7534
21890,3.1013
21891,2.023
21892,2.2925
21893,2.8317
21936,3.3709
21937,3.1013
21988,14.424
21989,62.412
21990,124.69
21991,184.27
21992,248.43
21993,307.2
21994,371.64
21995,429.87
21996,494.84
21997,546.33
21998,587.04
21999,628.29
22000,653.09
22001,677.09
22002,692.99
22003,692.18
22004,674.93
22005,657.14
22006,622.36
22007,590.28
22008,563.32
22009,521.53
22010,501.58
22011,502.93
22012,500.77
22013,489.45
22014,472.46
22015,451.98
22016,413.69
22017,374.87
22018,339.55
22019,297.23
22020,254.9
22021,218.24
22022,180.22
22023,146.79
22024,119.57
22025,84.519
22026,56.751
22027,31.678
22028,11.998
22504,3.1013
22506,3.1013
22508,3.1013
22513,3.9101
22514,3.6405
22515,0.94458
22533,1.4838
22534,3.6405
22535,3.3709
22536,3.3709
22537,3.3709
22538,3.1013
22539,3.9101
22543,3.3709
22544,3.3709
22545,3.3709
22546,3.1013
22556,1.7534
22558,4.4493
22559,3.1013
22560,3.3709
22561,3.3709
22562,3.3709
22563,3.3709
22564,3.3709
22565,3.3709
22566,3.3709
22567,3.3709
22568,3.1013
22569,4.1797
22574,2.2925
22634,4.7189
22635,3.9101
22636,4.1797
22637,4.1797
22638,4.1797
22639,4.1797
22640,4.1797
22641,3.9101
22642,3.9101
22643,3.9101
22644,3.9101
22645,3.9101
22646,3.9101
22647,3.9101
22648,3.9101
22649,3.9101
22650,3.9101
22651,4.4493
22652,2.8317
22653,10.38
22654,6.0669
22655,9.8412
22656,6.8756
22657,3.3709
22658,4.1797
22659,3.9101
22660,3.9101
22661,3.6405
22662,4.4493
22680,4.7189
22681,4.4493
22682,1.7534
22686,4.7189
22687,4.4493
22688,1.2142
22705,2.8317
22753,8.7628
22754,58.368
22755,115.52
22756,166.48
22757,239.8
22758,298.31
22759,370.83
22760,429.6
22761,502.39
22762,557.39
22763,615.89
22764,668.46
22765,708.36
22766,744.75
22767,764.7
22768,778.18
22769,779.26
22770,765.51
22771,746.1
22772,711.32
22773,672.77
22774,635.57
22775,596.48
22776,567.36
22777,551.19
22778,549.57
22779,544.45
22780,530.97
22781,502.39
22782,462.49
22783,415.31
22784,357.89
22785,306.39
22786,256.25
22787,213.65
22788,172.14
22789,137.9
22790,105.28
22791,71.848
22792,46.776
22793,21.973
22794,5.2581
23086,4.9885
23087,4.9885
23088,4.9885
23089,5.2581
23090,4.1797
23092,4.7189
23105,6.8756
23108,6.0669
23109,4.7189
23110,4.9885
23111,4.9885
23112,4.9885
23113,4.9885
23114,4.7189
23115,6.0669
23117,2.5621
23118,6.0669
23125,4.7189
23126,4.9885
23127,4.9885
23128,4.9885
23129,12.807
23130,4.4493
23131,4.9885
23132,4.9885
23133,4.7189
23134,6.0669
23135,13.615
23136,12.537
23137,13.346
23138,10.92
23139,3.9101
23140,4.9885
23141,4.7189
23142,4.7189
23143,4.7189
23144,4.7189
23145,4.7189
23146,4.9885
23147,4.7189
23148,5.5277
23153,2.023
23154,5.2581
23155,4.9885
23156,3.6405
23157,11.728
23158,7.1452
23159,3.9101
23160,5.7973
23162,3.3709
23163,4.9885
23164,4.7189
23165,4.7189
23166,4.9885
23169,4.7189
23170,4.4493
23180,5.5277
23181,4.4493
23182,4.7189
23183,4.7189
23184,4.7189
23185,4.7189
23186,4.7189
23187,4.7189
23188,4.7189
23189,4.7189
23190,4.4493
23191,5.5277
23204,3.9101
23205,4.9885
23206,4.7189
23207,4.7189
23208,4.4493
23209,12.537
23210,12.807
23211,12.807
23212,12.807
23213,12.268
23214,4.1797
23215,4.7189
23216,4.7189
23217,4.1797
23218,6.0669
23219,11.998
23220,4.1797
23221,2.5621
23223,2.8317
23225,5.7973
23226,4.4493
23227,4.4493
23228,5.5277
23231,5.5277
23232,4.4493
23233,4.7189
23234,4.4493
23235,4.4493
23236,4.7189
23237,4.1797
23238,5.5277
23240,2.2925
23241,4.4493
23242,10.65
23243,13.615
23244,5.7973
23245,4.1797
23246,4.4493
23247,4.4493
23248,4.7189
23249,4.1797
23250,12.268
23251,12.537
23252,12.537
23253,12.537
23254,12.537
23255,12.537
23256,12.537
23257,12.537
23258,12.537
23259,12.537
23260,12.268
23261,12.537
23262,11.998
23263,14.155
23264,21.164
23265,20.086
23266,20.355
23267,20.355
23268,20.355
23269,20.355
23270,20.355
23271,20.355
23272,20.355
23273,20.086
23274,21.164
23275,15.772
23276,11.459
23277,12.268
23278,11.998
23279,11.998
23280,11.998
23281,11.998
23282,11.998
23283,11.998
23284,11.998
23285,12.268
23286,11.459
23287,18.738
23288,20.895
23289,12.537
23290,11.998
23291,11.728
23292,19.816
23293,20.086
23294,19.816
23295,19.816
23296,19.816
23297,19.816
23298,19.816
23299,19.816
23300,19.816
23301,19.816
23302,19.816
23303,19.277
23304,21.973
23305,26.556
23306,19.007
23307,17.659
23308,10.65
23309,11.998
23310,10.65
23311,15.772
23312,16.311
23313,14.155
23314,20.355
23315,20.086
23316,15.233
23317,10.92
23318,10.65
23319,16.311
23320,20.086
23321,19.277
23322,19.547
23323,19.277
23324,19.277
23325,19.277
23326,19.277
23327,19.277
23328,19.277
23329,19.277
23330,19.007
23331,19.547
23332,11.459
23333,11.189
23334,10.92
23335,19.007
23336,19.007
23337,19.277
23338,19.007
23339,19.277
23340,18.468
23341,10.38
23342,11.189
23343,10.92
23344,10.65
23345,12.537
23346,19.816
23347,18.738
23348,19.007
23349,19.007
23350,19.007
23351,19.007
23352,19.007
23353,18.738
23354,19.007
23355,17.929
23356,23.59
23357,23.321
23358,17.659
23359,19.007
23360,18.738
23361,18.738
23362,18.468
23363,19.547
23364,13.076
23365,9.0324
23366,17.659
23367,12.807
23368,9.302
23369,17.39
23370,18.738
23371,18.199
23372,19.277
23373,10.65
23374,17.929
23375,18.468
23376,18.468
23377,18.468
23378,18.468
23379,18.468
23380,18.468
23381,18.468
23382,18.468
23383,18.199
23384,18.199
23385,18.199
23386,18.199
23387,18.199
23388,18.199
23389,18.199
23390,18.199
23391,18.199
23392,18.199
23393,18.199
23394,18.199
23395,17.39
23396,21.703
23397,27.095
23398,25.478
23399,27.095
23400,20.625
23401,21.973
23402,26.556
23403,26.556
23404,20.355
23405,18.199
23406,12.268
23407,8.4932
23408,16.042
23409,18.738
23410,11.189
23411,8.7628
23412,16.581
23413,18.468
23414,10.38
23415,9.5716
23416,9.5716
23417,9.5716
23418,9.5716
23419,9.5716
23420,9.8412
23421,17.929
23422,17.12
23423,9.0324
23424,9.8412
23425,8.4932
23426,0.94458
23427,1.7534
23428,1.2142
23429,2.023
23437,1.7534
23438,4.9885
23439,10.38
23440,9.302
23441,9.5716
23442,9.5716
23443,9.5716
23444,9.5716
23445,9.302
23446,10.65
23447,2.8317
23448,6.8756
23449,10.111
23450,9.5716
23451,8.4932
23452,17.12
23453,10.111
23454,16.851
23455,9.8412
23456,16.581
23457,17.659
23458,17.39
23459,17.659
23460,9.302
23461,17.659
23462,25.478
23463,25.208
23464,25.478
23465,25.208
23466,25.208
23467,25.208
23468,25.208
23469,25.208
23470,24.938
23471,25.747
23472,22.512
23473,18.468
23474,26.286
23475,24.669
23476,25.747
23477,21.973
23478,15.233
23479,20.625
23480,25.747
23481,24.669
23482,24.938
23483,24.938
23484,24.669
23485,25.747
23486,19.547
23487,16.311
23488,15.772
23489,23.321
23490,19.277
23491,16.042
23492,16.581
23493,17.39
23494,9.0324
23495,15.233
23496,16.851
23497,16.581
23498,16.581
23499,16.581
23500,16.581
23501,16.581
23502,16.581
23503,24.669
23504,24.399
23505,24.399
23506,24.669
23507,23.59
23508,16.581
23509,25.208
23510,24.13
23511,24.399
23512,24.13
23513,24.399
23514,24.13
23515,24.669
23516,21.703
23517,15.233
23518,16.311
23519,15.772
23520,17.12
23521,11.459
23522,11.728
23523,12.807
23524,7.1452
23525,7.4148
23526,12.537
23527,16.581
23528,15.772
23529,16.042
23530,16.042
23531,16.042
23532,15.772
23533,15.772
23534,15.772
23535,15.772
23536,15.772
23537,15.772
23538,15.772
23539,15.772
23540,15.772
23541,15.772
23542,15.772
23543,15.772
23544,15.772
23545,15.772
23546,15.233
23547,7.1452
23548,7.6844
23549,7.6844
23550,7.6844
23551,7.4148
23552,7.6844
23553,6.6061
23579,10.38
23580,60.794
23581,108.78
23582,174.02
23583,231.99
23584,296.96
23585,370.83
23586,436.34
23587,501.85
23588,567.36
23589,631.79
23590,679.78
23591,728.58
23592,766.32
23593,789.51
23594,811.61
23595,814.85
23596,802.72
23597,785.73
23598,764.97
23599,726.96
23600,684.9
23601,642.31
23602,604.3
23603,591.36
23604,589.2
23605,579.49
23606,567.36
23607,547.68
23608,508.32
23609,457.64
23610,401.29
23611,353.57
23612,308.28
23613,256.52
23614,213.38
23615,171.06
23616,137.09
23617,96.381
23618,68.073
23619,43.54
23620,25.478
23621,9.302
23932,5.5277
23933,4.4493
23934,4.7189
23935,4.7189
23936,4.7189
23937,4.4493
23938,5.5277
23956,4.4493
23998,4.4493
23999,4.9885
24000,4.7189
24001,4.9885
24004,4.7189
24006,5.5277
24007,4.9885
24008,4.1797
24028,2.023
24029,5.5277
24030,4.7189
24031,4.9885
24032,4.9885
24033,4.7189
24034,6.0669
24036,4.4493
24038,4.4493
24043,4.9885
24045,5.2581
24046,4.9885
24047,4.9885
24048,4.9885
24049,4.9885
24050,4.9885
24051,4.9885
24052,4.4493
24053,6.8756
24054,11.998
24055,3.9101
24056,5.2581
24057,4.7189
24058,4.9885
24059,4.7189
24060,4.9885
24061,4.1797
24062,8.2236
24063,13.615
24064,13.076
24065,11.728
24066,18.199
24067,16.311
24068,16.851
24069,21.703
24070,20.895
24071,20.086
24072,26.286
24073,30.33
24074,21.703
24075,26.826
24076,28.982
24077,29.252
24078,21.703
24079,20.355
24080,20.625
24081,20.895
24082,13.076
24083,12.268
24084,12.537
24085,4.4493
24086,4.4493
24087,12.268
24088,4.4493
24089,12.268
24090,4.4493
24091,13.076
24092,12.268
24093,12.537
24094,12.537
24095,11.998
24096,14.155
24097,21.164
24098,20.086
24099,20.355
24100,20.355
24101,20.355
24102,20.355
24103,20.625
24104,19.277
24105,24.938
24106,24.399
24107,23.321
24108,29.252
24109,27.904
24110,28.174
24111,28.174
24112,28.174
24113,28.174
24114,27.904
24115,27.904
24116,27.904
24117,27.634
24118,28.713
24119,21.164
24120,19.547
24121,20.086
24122,19.277
24123,27.365
24124,27.904
24125,27.634
24126,27.634
24127,27.634
24128,27.634
24129,27.634
24130,27.634
24131,27.634
24132,27.904
24133,26.286
24134,19.816
24135,28.443
24136,27.095
24137,27.365
24138,27.365
24139,27.365
24140,27.365
24141,27.365
24142,27.365
24143,27.365
24144,27.095
24145,27.095
24146,27.095
24147,27.365
24148,26.017
24149,32.217
24150,31.139
24151,26.286
24152,26.017
24153,33.026
24154,30.061
24155,26.826
24156,25.208
24157,39.766
24158,37.609
24159,34.105
24160,34.913
24161,34.644
24162,34.644
24163,34.644
24164,34.644
24165,34.644
24166,34.644
24167,34.644
24168,34.374
24169,34.374
24170,34.374
24171,34.374
24172,34.374
24173,34.374
24174,34.105
24175,34.374
24176,33.026
24177,25.478
24178,26.286
24179,26.017
24180,26.017
24181,26.017
24182,26.286
24183,25.478
24184,28.713
24185,34.644
24186,34.374
24187,30.6
24188,24.938
24189,26.017
24190,26.017
24191,24.938
24192,30.33
24193,34.105
24194,34.374
24195,28.713
24196,23.86
24197,32.217
24198,28.443
24199,24.13
24200,31.678
24201,34.913
24202,25.747
24203,32.757
24204,26.017
24205,32.217
24206,33.565
24207,33.296
24208,33.026
24209,41.384
24210,33.296
24211,33.296
24212,33.026
24213,33.026
24214,33.026
24215,33.835
24216,41.384
24217,41.114
24218,39.766
24219,32.217
24220,33.026
24221,32.757
24222,32.757
24223,32.757
24224,32.757
24225,32.487
24226,33.296
24227,29.791
24228,23.051
24229,28.174
24230,33.296
24231,32.217
24232,32.487
24233,32.487
24234,32.487
24235,32.217
24236,32.217
24237,32.217
24238,32.217
24239,32.217
24240,31.948
24241,33.026
24242,24.938
24243,30.33
24244,32.487
24245,31.948
24246,32.217
24247,31.139
24248,40.305
24249,24.399
24250,31.409
24251,31.948
24252,31.678
24253,39.766
24254,31.409
24255,31.678
24256,32.487
24257,39.227
24258,31.948
24259,39.497
24260,30.33
24261,33.296
24262,40.305
24263,39.227
24264,39.497
24265,39.227
24266,39.497
24267,39.227
24268,40.036
24269,35.992
24270,30.33
24271,31.409
24272,30.87
24273,31.139
24274,30.87
24275,30.87
24276,30.87
24277,30.87
24278,30.87
24279,30.87
24280,30.87
24281,30.87
24282,30.87
24283,30.6
24284,30.87
24285,30.061
24286,37.34
24287,39.497
24288,31.139
24289,30.6
24290,30.061
24291,38.418
24292,30.6
24293,30.33
24294,30.33
24295,30.33
24296,30.33
24297,29.791
24298,21.434
24299,23.321
24300,29.791
24301,21.164
24302,22.512
24303,21.164
24304,26.017
24305,37.879
24306,28.713
24307,30.061
24308,30.33
24309,27.095
24310,20.895
24311,21.973
24312,21.703
24313,21.973
24314,21.434
24315,22.512
24316,17.39
24317,12.807
24318,14.155
24319,12.807
24320,18.738
24321,22.243
24322,21.164
24323,22.512
24324,15.503
24325,13.076
24326,13.615
24327,13.346
24328,13.615
24329,12.807
24330,20.625
24331,21.703
24332,21.434
24333,21.434
24334,21.434
24335,21.434
24336,21.434
24337,21.434
24338,21.434
24339,21.164
24340,21.164
24341,21.164
24342,21.164
24343,20.895
24344,22.512
24345,29.791
24346,28.982
24347,28.713
24348,31.409
24349,37.879
24350,36.801
24351,37.07
24352,37.07
24353,36.801
24354,37.07
24355,35.992
24356,41.653
24357,41.653
24358,34.644
24359,42.462
24360,40.575
24361,35.722
24362,36.801
24363,36.531
24364,36.261
24365,37.34
24366,30.6
24367,27.095
24368,35.183
24369,36.801
24370,36.261
24371,36.261
24372,36.261
24373,36.261
24374,35.992
24375,36.261
24376,28.174
24377,27.904
24378,27.904
24379,27.634
24380,19.547
24381,20.086
24382,19.816
24383,19.816
24384,19.547
24385,20.895
24386,28.982
24387,25.478
24388,20.895
24389,28.713
24390,27.365
24391,27.634
24392,27.634
24393,27.634
24394,27.634
24395,27.634
24396,27.634
24397,27.634
24398,27.095
24399,28.443
24400,21.973
24401,23.321
24402,28.174
24403,27.095
24404,27.365
24405,27.095
24406,27.634
24407,26.556
24408,33.565
24409,35.722
24410,34.913
24411,35.722
24412,28.174
24413,26.826
24414,27.095
24415,27.095
24416,26.826
24417,26.826
24418,26.826
24419,26.826
24420,18.738
24421,27.365
24422,26.286
24423,18.468
24424,18.738
24425,18.738
24426,18.738
24427,18.199
24428,20.086
24429,27.365
24430,26.286
24431,26.556
24432,26.556
24433,26.556
24434,26.556
24435,26.286
24436,27.365
24437,22.782
24438,18.468
24439,14.424
24440,10.38
24441,6.0669
24442,2.023
24467,11.998
24468,62.951
24469,122.8
24470,187.23
24471,245.47
24472,312.33
24473,377.57
24474,443.62
24475,506.16
24476,563.59
24477,615.62
24478,650.94
24479,683.56
24480,712.67
24481,733.16
24482,740.44
24483,735.32
24484,717.26
24485,685.71
24486,651.47
24487,619.39
24488,577.61
24489,552.26
24490,541.75
24491,540.67
24492,527.73
24493,510.21
24494,487.29
24495,455.21
24496,414.5
24497,372.71
24498,331.2
24499,289.41
24500,255.71
24501,222.55
24502,189.39
24503,156.5
24504,139.25
24505,97.729
24506,74.544
24507,57.29
24508,32.757
24509,16.851
24510,1.2142
24776,1.2142
24777,5.7973
24778,3.6405
24779,10.111
24780,13.885
24781,7.6844
24801,5.5277
24802,4.4493
24803,5.2581
24804,3.1013
24808,8.7628
24809,10.65
24810,3.9101
24811,4.9885
24812,5.5277
24813,1.2142
24818,1.4838
24819,5.5277
24820,4.7189
24821,4.9885
24822,4.7189
24823,4.7189
24824,4.7189
24825,4.7189
24826,4.7189
24827,4.7189
24828,4.7189
24829,4.7189
24830,4.7189
24831,5.2581
24839,4.9885
24840,4.7189
24841,4.7189
24842,4.7189
24843,4.7189
24844,4.7189
24845,4.7189
24846,4.7189
24847,4.7189
24848,4.7189
24849,5.2581
24850,2.2925
24852,0.94458
24853,1.4838
24855,2.2925
24857,1.2142
24858,5.5277
24859,4.4493
24860,4.7189
24861,4.7189
24862,4.7189
24863,4.7189
24864,4.7189
24865,4.7189
24866,4.4493
24867,5.5277
24879,4.7189
24904,4.1797
24906,3.1013
24926,5.7973
24927,5.2581
24928,3.6405
24938,0.94458
24939,6.0669
24940,4.7189
24941,6.0669
24951,3.6405
24952,5.5277
24953,5.2581
24954,4.7189
24955,12.537
24956,13.346
24957,13.615
24958,5.5277
24959,4.9885
24960,5.2581
24961,5.2581
24962,5.2581
24963,4.9885
24964,5.2581
24965,4.4493
24970,4.4493
24973,6.3365
24974,2.5621
24980,5.7973
24981,5.7973
24984,6.3365
24985,3.9101
24986,11.189
24987,8.4932
24988,4.4493
24989,5.2581
24990,4.7189
24991,6.0669
25007,6.3365
25008,13.885
25009,11.998
25010,4.1797
25011,6.6061
25012,13.885
25013,12.807
25014,13.615
25015,10.92
25016,4.1797
25017,5.2581
25018,4.9885
25019,4.9885
25020,4.9885
25021,4.9885
25022,4.7189
25023,5.7973
25031,2.8317
25032,5.5277
25033,4.9885
25034,4.9885
25035,4.9885
25036,4.9885
25037,4.9885
25038,4.9885
25039,4.9885
25040,4.7189
25041,5.2581
25043,4.7189
25044,4.9885
25045,4.9885
25046,4.7189
25049,5.5277
25050,4.7189
25051,4.9885
25052,4.7189
25053,5.5277
25054,2.8317
25056,6.6061
25057,1.4838
25059,3.1013
25063,1.2142
25064,1.7534
25079,3.9101
25080,5.2581
25081,4.7189
25082,5.2581
25099,6.0669
25100,4.7189
25101,4.9885
25102,5.5277
25103,2.023
25105,1.7534
25106,1.7534
25209,5.7973
25210,6.0669
25211,6.0669
25213,6.6061
25214,5.2581
25253,6.3365
25316,28.174
25317,82.092
25318,140.59
25319,196.94
25320,259.75
25321,326.34
25322,390.51
25323,463.84
25324,525.3
25325,582.73
25326,627.48
25327,661.45
25328,685.44
25329,718.06
25330,728.85
25331,729.12
25332,713.21
25333,695.96
25334,670.89
25335,637.46
25336,603.76
25337,570.6
25338,553.61
25339,537.71
25340,536.63
25341,518.57
25342,501.58
25343,473.0
25344,430.68
25345,387.81
25346,336.59
25347,289.14
25348,248.43
25349,206.11
25350,168.36
25351,131.97
25352,95.572
25353,72.657
25354,47.854
25355,21.164
25356,6.0669
25777,1.2142
25778,6.0669
25788,4.1797
25791,4.4493
25794,4.4493
25795,4.4493
25796,4.4493
25797,4.4493
25798,4.4493
25799,4.7189
25800,3.3709
25806,5.2581
25807,4.1797
25808,4.4493
25809,4.4493
25810,4.4493
25811,4.4493
25812,4.4493
25813,4.4493
25814,4.7189
25815,3.3709
25816,9.5716
25817,8.4932
25818,3.6405
25819,4.4493
25820,4.4493
25821,3.6405
25822,10.111
25823,13.076
25824,11.998
25825,13.076
25826,5.7973
25827,3.9101
25828,4.4493
25829,4.1797
25830,4.1797
25831,4.1797
25832,4.1797
25833,4.1797
25834,4.1797
25835,4.1797
25836,4.1797
25837,4.1797
25838,4.1797
25839,4.1797
25840,4.1797
25841,4.1797
25842,4.4493
25843,3.9101
25844,5.5277
25845,13.076
25846,11.998
25847,12.268
25848,12.268
25849,12.268
25850,12.537
25851,11.459
25852,16.042
25853,17.929
25854,10.92
25855,13.346
25856,7.954
25857,3.3709
25858,4.1797
25859,3.9101
25860,4.1797
25861,3.9101
25862,4.1797
25863,3.1013
25864,9.8412
25865,12.807
25866,10.92
25867,19.547
25868,13.076
25869,18.468
25870,20.355
25871,20.086
25872,20.086
25873,20.086
25874,20.086
25875,20.086
25876,19.816
25877,19.816
25878,11.998
25879,19.816
25880,11.459
25881,11.998
25882,11.728
25883,11.728
25884,11.728
25885,11.728
25886,11.728
25887,11.459
25888,12.268
25889,9.0324
25890,4.9885
25891,12.807
25892,11.459
25893,11.728
25894,11.728
25895,11.728
25896,11.728
25897,11.728
25898,11.728
25899,11.459
25900,11.728
25901,11.459
25902,11.728
25903,10.38
25904,17.659
25905,14.694
25906,10.111
25907,17.659
25908,19.816
25909,19.277
25910,19.547
25911,19.547
25912,19.547
25913,19.547
25914,19.277
25915,19.277
25916,19.277
25917,19.277
25918,19.277
25919,19.277
25920,19.007
25921,10.92
25922,11.459
25923,10.65
25924,2.2925
25925,4.4493
25926,10.65
25927,2.2925
25928,3.3709
25929,3.1013
25930,2.5621
25931,4.9885
25932,12.537
25933,8.4932
25934,1.7534
25935,6.3365
25936,11.998
25937,10.92
25938,11.189
25939,10.92
25940,11.459
25941,10.111
25942,16.581
25943,14.963
25944,10.111
25945,11.189
25946,10.65
25947,11.728
25948,4.9885
25949,2.5621
25950,3.1013
25951,2.8317
25952,2.8317
25953,2.8317
25954,3.1013
25955,2.2925
25956,10.38
25957,11.189
25958,10.92
25959,10.92
25960,10.92
25961,10.92
25962,10.92
25963,10.92
25964,10.65
25965,11.459
25966,19.277
25967,19.007
25968,17.929
25969,8.7628
25970,2.023
25971,3.1013
25972,2.2925
25973,4.7189
25974,12.268
25975,7.954
25976,2.023
25977,2.8317
25978,2.8317
25979,2.023
25980,6.3365
25981,11.728
25982,9.8412
25983,14.963
25984,20.355
25985,13.885
25986,9.0324
25987,17.12
25988,13.615
25989,10.111
25990,10.38
25991,11.459
25992,3.3709
25993,8.7628
25994,10.92
25995,10.38
25996,10.65
25997,10.65
25998,10.65
25999,10.38
26000,10.38
26001,10.38
26002,10.38
26003,10.38
26004,10.65
26005,9.8412
26006,2.2925
26007,11.728
26008,19.007
26009,17.12
26010,9.8412
26011,10.38
26012,10.92
26013,7.954
26014,3.6405
26015,11.459
26016,10.111
26017,10.38
26018,10.38
26019,10.38
26020,10.38
26021,10.38
26022,10.38
26023,10.38
26024,9.8412
26025,11.189
26026,4.7189
26027,6.6061
26028,10.92
26029,10.111
26030,9.302
26031,16.042
26032,18.738
26033,17.929
26034,19.007
26035,11.189
26036,10.65
26037,2.2925
26038,9.5716
26039,2.5621
26040,9.302
26041,10.38
26042,2.2925
26043,2.023
26044,2.023
26045,1.7534
26048,2.2925
26049,1.7534
26050,2.023
26051,2.023
26052,2.023
26053,2.2925
26069,2.8317
26070,2.023
26071,2.023
26072,2.023
26073,1.7534
26074,3.1013
26077,2.5621
26078,2.023
26079,2.2925
26080,1.4838
26081,9.5716
26082,10.111
26083,10.111
26084,9.8412
26085,18.199
26086,18.199
26087,17.929
26088,9.5716
26089,10.65
26090,18.468
26091,17.929
26092,17.929
26093,17.929
26094,17.929
26095,17.929
26096,17.929
26097,17.929
26098,17.929
26099,17.929
26100,17.929
26101,17.929
26102,17.659
26103,17.929
26104,16.851
26105,22.243
26106,22.512
26107,16.851
26108,17.929
26109,17.659
26110,17.659
26111,17.659
26112,17.659
26113,17.39
26114,18.199
26115,12.537
26116,2.023
26117,7.4148
26118,10.111
26119,8.7628
26120,16.581
26121,17.659
26122,17.39
26123,17.39
26124,17.39
26125,17.659
26126,9.5716
26127,9.302
26128,9.302
26129,9.302
26130,9.302
26131,9.302
26132,9.302
26133,9.302
26134,9.302
26135,9.302
26136,9.302
26137,9.302
26138,8.7628
26139,11.459
26140,17.929
26141,17.659
26142,14.424
26143,8.4932
26144,8.4932
26145,13.076
26146,14.694
26147,7.4148
26148,13.346
26149,17.929
26150,16.851
26151,17.12
26152,16.851
26153,17.929
26154,11.728
26155,8.7628
26156,8.2236
26157,15.772
26158,11.189
26159,8.2236
26160,10.111
26161,1.2142
26162,8.2236
26163,2.023
26165,0.94458
26166,0.94458
26167,0.94458
26168,0.94458
26169,9.0324
26170,8.7628
26171,9.0324
26172,9.0324
26173,9.0324
26174,9.0324
26175,8.7628
26176,9.302
26177,7.6844
26179,1.4838
26206,14.963
26207,56.751
26208,104.74
26209,178.34
26210,236.03
26211,293.72
26212,359.23
26213,424.75
26214,490.53
26215,555.5
26216,611.04
26217,659.83
26218,707.82
26219,746.37
26220,777.11
26221,797.06
26222,802.18
26223,796.52
26224,777.91
26225,760.39
26226,724.8
26227,674.66
26228,638.26
26229,601.87
26230,584.08
26231,582.46
26232,573.29
26233,556.58
26234,526.65
26235,482.98
26236,431.76
26237,382.42
26238,331.74
26239,287.79
26240,247.08
26241,204.49
26242,169.71
26243,136.82
26244,103.93
26245,70.23
26246,44.349
26247,19.277
26248,2.2925
26541,6.0669
26548,6.8756
26549,5.2581
26555,7.1452
26556,6.0669
26557,6.3365
26558,6.3365
26559,6.3365
26560,6.3365
26561,6.0669
26562,6.3365
26563,5.2581
26564,10.92
26565,10.92
26566,5.2581
26567,6.3365
26568,6.3365
26569,5.2581
26570,11.189
26571,15.772
26572,8.2236
26573,5.7973
26574,5.2581
26575,13.076
26576,7.954
26577,5.5277
26578,6.0669
26579,6.0669
26580,6.0669
26581,6.0669
26582,6.0669
26583,6.0669
26584,6.0669
26585,6.0669
26586,6.0669
26587,6.0669
26588,6.0669
26589,6.0669
26590,5.7973
26591,6.8756
26592,14.963
26593,12.268
26594,6.6061
26595,14.694
26596,14.155
26597,11.998
26598,5.5277
26599,3.6405
26602,0.94458
26603,6.8756
26604,5.5277
26605,6.8756
26606,0.94458
26607,1.2142
26608,6.8756
26609,5.5277
26610,6.0669
26611,5.5277
26612,6.6061
26618,5.2581
26620,4.4493
26621,6.3365
26622,5.5277
26623,6.3365
26628,6.0669
26629,5.7973
26630,6.3365
26631,14.155
26632,13.885
26633,13.076
26634,5.2581
26635,6.0669
26636,5.5277
26637,6.0669
26638,3.9101
26646,1.2142
26647,6.6061
26648,5.5277
26649,6.0669
26650,4.7189
26651,10.92
26652,13.346
26653,19.547
26654,17.12
26655,13.076
26656,13.885
26657,13.346
26658,14.694
26659,6.3365
26660,11.998
26661,14.155
26662,13.346
26663,14.155
26664,6.3365
26665,5.2581
26666,5.7973
26669,5.5277
26670,5.5277
26671,5.2581
26674,6.0669
26675,4.9885
26676,6.8756
26677,12.807
26678,4.4493
26679,5.7973
26680,4.7189
26681,8.2236
26682,11.459
26683,7.4148
26684,11.998
26685,4.1797
26686,5.7973
26687,5.2581
26688,5.7973
26689,4.4493
26690,10.38
26691,9.8412
26692,4.4493
26693,5.5277
26694,5.2581
26695,5.2581
26696,5.5277
26697,4.4493
26698,11.189
26699,13.885
26700,13.346
26701,13.346
26702,13.346
26703,13.615
26704,11.998
26705,28.443
26706,22.243
26707,20.895
26708,21.703
26709,13.346
26710,21.164
26711,21.164
26712,13.346
26713,21.703
26714,21.164
26715,21.164
26716,21.164
26717,21.164
26718,21.164
26719,21.164
26720,20.895
26721,21.434
26722,19.277
26723,11.459
26724,15.503
26725,21.703
26726,20.625
26727,20.895
26728,20.895
26729,20.625
26730,21.703
26731,16.851
26732,11.998
26733,12.807
26734,13.076
26735,11.728
26736,18.199
26737,20.355
26738,26.826
26739,23.86
26740,19.277
26741,26.826
26742,29.791
26743,21.973
26744,20.355
26745,20.625
26746,20.625
26747,20.625
26748,20.625
26749,20.355
26750,20.355
26751,20.355
26752,20.355
26753,20.355
26754,20.355
26755,20.355
26756,20.355
26757,20.355
26758,20.355
26759,20.355
26760,20.355
26761,20.355
26762,20.086
26763,20.086
26764,20.086
26765,20.355
26766,19.816
26767,21.973
26768,32.487
26769,33.565
26770,27.095
26771,28.174
26772,27.904
26773,27.904
26774,27.904
26775,27.634
26776,28.713
26777,22.782
26778,19.007
26779,19.816
26780,19.816
26781,19.816
26782,19.816
26783,19.816
26784,19.547
26785,19.547
26786,19.547
26787,19.547
26788,19.547
26789,19.547
26790,19.547
26791,19.547
26792,19.547
26793,19.547
26794,19.547
26795,19.547
26796,19.277
26797,19.547
26798,18.738
26799,10.65
26800,12.807
26801,18.468
26802,11.728
26803,20.355
26804,19.007
26805,19.277
26806,19.547
26807,17.929
26808,24.938
26809,34.105
26810,26.017
26811,27.365
26812,28.174
26813,22.512
26814,23.051
26815,23.86
26816,17.929
26817,19.277
26818,19.007
26819,19.007
26820,19.007
26821,18.738
26822,19.547
26823,13.076
26824,9.5716
26825,17.12
26826,19.277
26827,18.738
26828,18.738
26829,18.738
26830,18.738
26831,18.738
26832,18.738
26833,18.738
26834,18.738
26835,18.738
26836,18.738
26837,18.738
26838,18.468
26839,19.007
26840,27.095
26841,26.556
26842,26.556
26843,26.826
26844,24.938
26845,18.199
26846,16.851
26847,9.5716
26848,10.111
26849,12.537
26850,19.547
26851,17.39
26852,22.243
26853,23.86
26854,17.12
26855,18.468
26856,18.199
26857,18.468
26858,17.12
26859,23.86
26860,21.164
26861,22.512
26862,27.095
26863,26.017
26864,26.017
26865,26.017
26866,26.017
26867,26.017
26868,25.747
26869,26.556
26870,19.007
26871,17.659
26872,17.39
26873,25.208
26874,26.017
26875,25.747
26876,25.747
26877,25.747
26878,25.747
26879,25.747
26880,25.747
26881,25.208
26882,17.12
26883,17.659
26884,17.39
26885,17.659
26886,17.39
26887,17.39
26888,17.39
26889,17.39
26890,17.39
26891,17.39
26892,17.39
26893,17.39
26894,17.39
26895,17.39
26896,17.39
26897,17.39
26898,17.659
26899,16.581
26900,21.703
26901,26.017
26902,25.208
26903,24.399
26904,30.6
26905,33.565
26906,33.835
26907,27.095
26908,24.669
26909,25.208
26910,24.938
26911,25.747
26912,17.929
26913,16.581
26914,16.851
26915,16.851
26916,16.851
26917,16.851
26918,16.851
26919,16.851
26920,16.851
26921,16.851
26922,16.851
26923,16.851
26924,16.851
26925,16.851
26926,16.581
26927,16.581
26928,16.581
26929,16.581
26930,16.581
26931,16.581
26932,16.581
26933,16.581
26934,16.581
26935,16.581
26936,16.581
26937,16.581
26938,16.581
26939,16.581
26940,16.581
26941,16.581
26942,16.311
26943,16.311
26944,16.311
26945,16.311
26946,16.311
26947,16.311
26948,16.311
26949,16.311
26950,16.311
26951,16.311
26952,16.581
26953,15.233
26954,24.399
26955,15.772
26956,31.948
26957,16.851
26958,23.86
26959,16.311
26960,16.042
26961,16.042
26962,16.042
26963,16.042
26964,16.042
26965,16.042
26966,16.042
26967,16.042
26968,15.772
26969,16.311
26970,14.424
26971,7.1452
26972,7.954
26973,7.6844
26974,7.954
26975,7.954
26976,7.954
26977,7.6844
26978,8.4932
26979,4.1797
26988,5.2581
26989,8.2236
26990,7.6844
26991,7.6844
26992,7.954
26993,7.1452
26994,14.424
26995,16.042
26996,15.772
26997,15.772
26998,15.503
26999,16.042
27000,7.954
27001,7.6844
27002,7.6844
27003,15.772
27004,15.503
27005,15.772
27006,15.503
27007,16.311
27008,24.13
27009,23.59
27010,23.59
27011,23.59
27012,23.59
27013,23.59
27014,23.59
27015,23.59
27016,23.59
27017,23.321
27018,23.59
27019,22.512
27020,27.365
27021,28.713
27022,22.243
27023,23.321
27024,23.86
27025,19.007
27026,13.615
27027,20.355
27028,23.86
27029,23.051
27030,23.051
27031,23.051
27032,22.782
27033,23.86
27034,16.581
27035,14.694
27036,14.963
27037,14.963
27038,14.963
27039,14.963
27040,14.963
27041,14.963
27042,14.963
27043,14.963
27044,14.963
27045,14.694
27046,14.694
27047,14.694
27048,14.694
27049,14.694
27050,14.694
27051,14.694
27052,14.424
27053,16.311
27054,23.59
27055,22.243
27056,23.321
27057,20.355
27058,13.615
27059,14.963
27060,13.885
27061,17.659
27062,24.13
27063,18.738
27064,13.885
27065,14.424
27066,15.503
27067,9.0324
27068,10.111
27069,16.311
27070,7.954
27071,11.189
27072,14.963
27073,14.155
27074,14.424
27075,14.424
27076,14.424
27077,14.424
27078,14.424
27079,14.155
27080,14.155
27081,14.155
27082,14.155
27083,14.155
27084,14.155
27085,14.155
27086,14.155
27087,14.155
27088,14.155
27089,14.155
27090,14.155
27091,14.155
27092,14.155
27093,14.155
27094,13.885
27095,14.424
27096,12.268
27097,5.2581
27098,6.3365
27099,5.7973
27100,6.3365
27101,3.6405
27127,40.844
27128,98.268
27129,148.14
27130,214.46
27131,279.97
27132,345.49
27133,411.0
27134,476.51
27135,542.29
27136,606.72
27137,659.83
27138,699.46
27139,738.55
27140,767.94
27141,790.32
27142,797.86
27143,783.31
27144,767.13
27145,742.87
27146,708.36
27147,670.89
27148,630.72
27149,605.91
27150,594.86
27151,585.69
27152,579.22
27153,554.69
27154,519.91
27155,482.17
27156,433.91
27157,383.77
27158,334.16
27159,283.48
27160,240.61
27161,198.83
27162,164.32
27163,131.7
27164,97.998
27165,72.657
27166,48.124
27167,23.051
27168,6.3365
27478,1.2142
27485,4.1797
27486,1.7534
27487,9.302
27488,6.0669
27489,2.2925
27490,3.1013
27491,3.1013
27492,3.1013
27493,3.1013
27494,3.1013
27495,3.1013
27496,3.1013
27497,2.5621
27498,10.65
27499,11.189
27500,11.189
27501,3.1013
27502,3.1013
27503,3.1013
27504,10.92
27505,2.5621
27506,3.1013
27507,2.8317
27508,3.1013
27509,2.8317
27510,2.8317
27511,2.8317
27512,3.1013
27513,2.8317
27514,3.3709
27519,3.9101
27520,2.5621
27521,3.9101
27539,2.2925
27540,3.1013
27541,3.1013
27542,3.1013
27543,3.1013
27556,3.9101
27557,2.8317
27558,3.1013
27559,3.1013
27560,2.8317
27561,3.9101
27584,3.1013
27585,3.1013
27588,3.3709
27589,3.1013
27590,3.1013
27591,3.1013
27592,3.1013
27593,3.1013
27594,3.1013
27595,3.1013
27596,3.1013
27597,3.1013
27598,3.1013
27599,3.6405
27605,4.1797
27606,2.2925
27607,7.1452
27608,12.807
27609,6.3365
27610,2.5621
27611,3.3709
27612,3.1013
27613,3.1013
27614,3.1013
27615,3.1013
27616,3.1013
27617,3.1013
27618,3.1013
27619,3.3709
27620,2.2925
27621,10.65
27622,4.1797
27623,2.5621
27624,10.65
27625,11.189
27626,11.189
27627,11.189
27628,2.8317
27629,3.1013
27630,3.1013
27631,3.1013
27632,3.1013
27633,2.023
27637,3.9101
27638,2.8317
27639,3.1013
27640,2.5621
27641,5.2581
27642,12.807
27643,7.1452
27644,5.2581
27645,11.998
27646,10.92
27647,10.92
27648,11.728
27649,6.6061
27650,2.2925
27651,2.5621
27652,6.8756
27653,17.659
27654,14.155
27655,10.38
27656,11.189
27657,10.92
27658,10.92
27659,10.92
27660,10.92
27661,10.65
27662,11.459
27663,3.6405
27664,2.5621
27665,2.8317
27666,2.8317
27667,2.8317
27668,2.8317
27669,2.8317
27670,10.92
27671,10.65
27672,10.92
27673,10.92
27674,10.65
27675,10.92
27676,9.5716
27677,2.023
27678,2.2925
27679,4.7189
27680,9.5716
27681,1.4838
27682,3.1013
27683,2.023
27684,5.5277
27685,11.459
27686,10.38
27687,10.65
27688,10.65
27689,10.65
27690,10.65
27691,10.65
27692,10.38
27693,11.459
27694,5.5277
27695,2.023
27696,2.8317
27697,2.5621
27698,2.8317
27699,1.4838
27700,9.8412
27701,3.9101
27702,8.4932
27703,11.998
27704,2.023
27705,17.659
27706,10.92
27707,18.468
27708,10.65
27709,18.468
27710,10.65
27711,10.38
27712,10.38
27713,10.38
27714,10.65
27715,9.8412
27716,1.7534
27717,2.5621
27718,2.2925
27719,2.2925
27720,2.2925
27721,2.5621
27722,1.7534
27723,4.4493
27724,11.189
27725,10.111
27726,11.189
27727,7.1452
27728,1.4838
27729,2.5621
27730,2.2925
27731,2.2925
27732,2.2925
27733,2.023
27734,3.3709
27737,3.1013
27738,2.023
27739,2.2925
27740,2.2925
27741,2.2925
27742,2.5621
27743,1.4838
27744,9.8412
27745,3.9101
27746,1.4838
27747,9.5716
27748,10.38
27749,10.111
27750,10.65
27751,2.2925
27752,10.38
27753,10.111
27754,10.38
27755,10.111
27756,10.92
27757,17.929
27758,9.5716
27759,10.38
27760,10.111
27761,10.65
27762,7.954
27763,3.6405
27764,9.0324
27765,0.94458
27766,2.2925
27767,2.023
27768,2.023
27769,2.023
27770,2.023
27771,2.023
27772,2.023
27773,2.023
27774,2.2925
27775,1.2142
27776,6.8756
27777,10.92
27778,10.111
27779,9.8412
27780,10.92
27781,4.4493
27783,9.302
27784,3.9101
27785,1.4838
27786,2.023
27787,2.023
27788,2.023
27789,2.023
27790,2.023
27791,2.023
27792,2.023
27793,2.023
27794,2.023
27795,2.023
27796,2.023
27797,2.5621
27798,10.38
27799,9.8412
27800,10.111
27801,10.111
27802,10.111
27803,9.8412
27804,9.8412
27805,9.8412
27806,10.111
27807,9.302
27808,12.537
27809,18.738
27810,17.659
27811,18.738
27812,14.424
27813,9.0324
27814,10.111
27815,9.5716
27816,10.65
27817,4.9885
27818,2.023
27821,1.7534
27822,7.1452
27823,11.189
27824,3.6405
27825,1.2142
27826,1.7534
27827,1.7534
27828,1.7534
27829,1.7534
27830,1.7534
27831,1.7534
27832,1.7534
27833,1.7534
27834,1.7534
27835,1.7534
27836,1.7534
27837,9.8412
27838,9.5716
27839,9.8412
27840,9.8412
27841,9.8412
27842,9.8412
27843,9.5716
27844,10.111
27845,7.4148
27846,3.1013
27847,7.954
27848,3.3709
27849,7.6844
27850,3.3709
27851,10.111
27852,13.076
27853,15.233
27854,8.4932
27855,9.8412
27856,9.5716
27857,9.5716
27858,9.5716
27859,9.302
27860,10.65
27861,3.6405
27862,6.0669
27863,10.38
27864,9.302
27865,9.5716
27866,9.5716
27867,9.5716
27868,9.5716
27869,9.5716
27870,9.5716
27871,9.5716
27872,9.302
27873,9.302
27874,9.302
27875,9.302
27876,9.302
27877,9.302
27878,9.302
27879,9.302
27880,9.302
27881,9.302
27882,9.5716
27883,8.4932
27885,2.5621
27886,10.38
27887,7.4148
27889,1.4838
27890,1.2142
27891,1.2142
27892,1.2142
27893,1.4838
27895,4.7189
27896,10.111
27897,9.0324
27898,9.302
27899,9.302
27900,9.302
27901,9.0324
27902,9.5716
27903,8.2236
27904,15.503
27905,12.268
27906,8.4932
27907,9.5716
27908,8.2236
27909,15.503
27910,17.39
27911,17.12
27912,17.12
27913,17.659
27914,9.8412
27915,9.0324
27916,9.0324
27917,9.0324
27918,9.0324
27919,9.0324
27920,9.0324
27921,9.0324
27922,9.0324
27923,9.0324
27924,9.0324
27925,9.0324
27926,8.7628
27927,9.302
27928,7.4148
27930,1.2142
27931,0.94458
27932,0.94458
27933,0.94458
27934,0.94458
27935,0.94458
27936,0.94458
27938,1.7534
27952,1.4838
27954,1.2142
27956,8.4932
27957,9.0324
27958,9.302
27959,1.2142
27960,0.94458
27961,0.94458
27962,0.94458
27963,0.94458
27964,0.94458
27966,1.7534
27967,9.5716
27968,8.7628
27969,9.0324
27970,9.0324
27971,8.4932
27972,10.92
27973,17.659
27974,16.581
27975,17.12
27976,16.581
27977,17.659
27978,12.807
27979,11.459
27980,17.929
27981,16.581
27982,16.851
27983,16.851
27984,16.851
27985,16.851
27986,16.851
27987,16.581
27988,16.581
27989,16.581
27990,16.581
27991,16.581
27992,16.581
27993,16.581
27994,16.581
27995,16.581
27996,16.581
27997,16.311
27998,16.851
27999,8.7628
28000,8.4932
28001,8.4932
28002,8.4932
28003,8.4932
28004,8.4932
28005,8.2236
28006,9.0324
28007,16.851
28008,16.311
28009,16.311
28010,16.311
28011,16.311
28012,16.311
28013,16.311
28014,16.311
28015,16.311
28016,16.311
28017,16.042
28018,16.851
28019,13.076
28020,7.4148
28021,8.4932
28022,7.954
28023,9.0324
28024,3.9101
28027,4.9885
28028,8.7628
28029,7.954
28030,8.2236
28031,8.2236
28032,8.2236
28033,7.954
28034,7.954
28035,7.954
28036,7.954
28037,7.954
28038,7.954
28039,7.954
28040,7.954
28041,8.2236
28042,7.954
28043,16.042
28044,16.042
28045,16.042
28046,16.042
28047,16.042
28048,15.233
28049,7.4148
28050,7.954
28051,7.954
28052,7.4148
28053,9.8412
28054,14.963
28055,6.8756
28056,8.2236
28057,7.6844
28058,8.4932
28059,4.9885
28091,1.4838
28092,50.55
28093,100.96
28094,158.93
28095,217.97
28096,284.29
28097,349.8
28098,415.31
28099,481.36
28100,544.45
28101,598.63
28102,643.39
28103,684.9
28104,717.26
28105,746.37
28106,763.63
28107,760.39
28108,753.65
28109,724.0
28110,696.23
28111,660.37
28112,622.9
28113,588.66
28114,565.74
28115,555.5
28116,547.68
28117,533.12
28118,509.13
28119,478.67
28120,429.87
28121,387.54
28122,338.21
28123,296.42
28124,246.54
28125,212.85
28126,171.6
28127,146.53
28128,113.37
28129,88.563
28130,64.299
28131,47.315
28132,22.782
28133,6.6061
28408,3.1013
28412,3.6405
28415,4.1797
28417,3.9101
28418,4.1797
28419,4.1797
28420,4.1797
28421,4.1797
28422,4.1797
28423,4.1797
28424,4.1797
28425,4.1797
28426,4.1797
28427,4.1797
28428,4.1797
28429,4.1797
28430,4.1797
28431,4.1797
28432,4.1797
28433,4.1797
28434,4.1797
28435,4.1797
28436,4.1797
28437,4.1797
28438,4.1797
28439,4.1797
28440,3.9101
28441,4.1797
28442,3.1013
28443,9.0324
28444,12.537
28445,13.076
28446,5.7973
28447,9.0324
28448,12.807
28449,11.459
28450,13.346
28451,3.9101
28452,17.659
28453,13.885
28454,10.92
28455,19.816
28456,12.807
28457,11.728
28458,11.998
28459,11.998
28460,11.998
28461,11.998
28462,11.998
28463,11.728
28464,11.728
28465,11.728
28466,11.728
28467,11.998
28468,11.459
28469,13.076
28470,20.625
28471,19.547
28472,19.816
28473,19.816
28474,19.816
28475,19.816
28476,19.816
28477,19.547
28478,20.625
28479,15.233
28480,15.233
28481,16.851
28482,9.5716
28483,17.12
28484,15.503
28485,10.65
28486,11.728
28487,11.189
28488,12.537
28489,4.7189
28490,8.7628
28491,11.998
28492,10.92
28493,12.268
28494,3.9101
28495,10.111
28496,11.728
28497,11.459
28498,11.189
28499,11.728
28500,3.6405
28501,3.3709
28502,3.3709
28503,3.3709
28504,11.189
28505,2.8317
28506,3.3709
28507,3.1013
28508,4.4493
28509,10.92
28510,2.5621
28511,3.1013
28512,4.7189
28513,11.998
28514,11.189
28515,11.189
28516,11.728
28517,8.4932
28518,2.2925
28519,3.3709
28520,3.1013
28521,3.1013
28522,3.3709
28523,2.2925
28524,7.1452
28525,12.807
28526,6.6061
28527,1.4838
28528,9.302
28529,6.3365
28530,2.5621
28531,2.5621
28532,9.0324
28533,11.728
28534,10.92
28535,11.189
28536,11.189
28537,11.189
28538,11.189
28539,11.189
28540,11.189
28541,11.189
28542,10.92
28543,10.92
28544,10.92
28545,10.92
28546,10.92
28547,10.92
28548,11.728
28549,18.468
28550,11.189
28551,19.816
28552,18.738
28553,19.007
28554,18.738
28555,19.277
28556,16.851
28557,9.8412
28558,11.189
28559,10.65
28560,10.92
28561,9.8412
28562,14.963
28563,15.772
28564,9.8412
28565,10.111
28566,14.963
28567,19.547
28568,18.468
28569,18.738
28570,18.738
28571,18.738
28572,18.738
28573,18.738
28574,18.468
28575,18.738
28576,17.659
28577,26.017
28578,20.086
28579,18.199
28580,18.468
28581,18.468
28582,18.468
28583,18.199
28584,26.286
28585,26.556
28586,26.286
28587,26.286
28588,26.286
28589,26.286
28590,26.556
28591,25.478
28592,17.659
28593,18.468
28594,18.199
28595,18.199
28596,18.199
28597,18.199
28598,18.199
28599,18.199
28600,17.929
28601,18.199
28602,17.12
28603,22.243
28604,22.512
28605,20.895
28606,26.017
28607,30.6
28608,30.33
28609,24.938
28610,26.286
28611,25.478
28612,26.826
28613,19.277
28614,23.051
28615,26.556
28616,25.478
28617,26.556
28618,19.277
28619,16.581
28620,24.669
28621,25.747
28622,25.478
28623,25.478
28624,25.478
28625,25.478
28626,25.478
28627,25.478
28628,25.478
28629,25.208
28630,16.851
28631,17.929
28632,26.017
28633,24.399
28634,16.311
28635,18.738
28636,26.017
28637,24.938
28638,25.747
28639,23.051
28640,16.311
28641,16.581
28642,19.816
28643,25.208
28644,28.713
28645,30.6
28646,23.86
28647,25.208
28648,24.938
28649,24.938
28650,24.938
28651,25.208
28652,23.86
28653,30.87
28654,27.904
28655,24.13
28656,24.938
28657,24.669
28658,24.669
28659,24.669
28660,24.669
28661,24.399
28662,25.208
28663,17.39
28664,16.311
28665,16.581
28666,16.581
28667,16.311
28668,16.311
28669,16.311
28670,16.311
28671,16.311
28672,16.311
28673,16.042
28674,17.12
28675,24.938
28676,24.13
28677,24.13
28678,24.669
28679,21.973
28680,17.659
28681,23.321
28682,14.424
28683,19.007
28684,24.938
28685,23.86
28686,23.86
28687,24.938
28688,20.355
28689,15.233
28690,16.042
28691,16.042
28692,15.233
28693,20.355
28694,25.747
28695,17.659
28696,20.895
28697,24.399
28698,24.669
28699,17.12
28700,21.434
28701,24.938
28702,17.12
28703,14.963
28704,21.973
28705,31.678
28706,24.399
28707,23.86
28708,16.042
28709,15.233
28710,23.59
28711,23.59
28712,23.59
28713,23.59
28714,23.59
28715,23.321
28716,23.59
28717,22.512
28718,14.694
28719,15.503
28720,14.963
28721,17.12
28722,24.13
28723,22.782
28724,24.13
28725,20.086
28726,17.12
28727,24.399
28728,23.051
28729,23.051
28730,24.13
28731,18.468
28732,18.468
28733,24.13
28734,22.512
28735,24.13
28736,17.12
28737,19.816
28738,23.59
28739,23.59
28740,17.12
28741,14.424
28742,14.963
28743,14.694
28744,14.963
28745,13.885
28746,22.512
28747,15.772
28748,14.694
28749,14.694
28750,14.694
28751,14.694
28752,14.694
28753,14.694
28754,14.694
28755,14.694
28756,14.694
28757,14.424
28758,15.772
28759,22.243
28760,13.615
28761,14.694
28762,14.424
28763,14.424
28764,14.424
28765,14.424
28766,14.424
28767,14.424
28768,14.424
28769,14.155
28770,15.233
28771,10.92
28772,5.5277
28773,6.6061
28774,6.6061
28775,5.5277
28776,11.189
28777,14.963
28778,14.155
28779,14.424
28780,14.424
28781,13.885
28782,15.503
28783,6.8756
28784,13.346
28785,7.1452
28786,13.346
28787,7.6844
28788,5.7973
28789,6.3365
28790,6.0669
28791,6.0669
28792,6.0669
28793,6.0669
28794,6.0669
28795,6.3365
28796,14.424
28797,14.155
28798,14.155
28799,14.155
28800,14.155
28801,14.155
28802,13.885
28803,14.424
28804,12.537
28805,4.7189
28806,8.4932
28807,14.155
28808,16.851
28809,20.086
28810,12.807
28811,13.885
28812,14.963
28813,9.302
28814,9.8412
28815,9.8412
28816,9.302
28817,14.963
28818,13.346
28819,14.694
28820,8.4932
28821,5.2581
28822,5.7973
28823,6.0669
28824,4.9885
28825,11.998
28826,14.155
28827,13.615
28828,14.424
28829,6.6061
28830,5.5277
28831,5.5277
28832,6.0669
28834,5.5277
28835,5.7973
28836,5.5277
28838,5.2581
28853,4.1797
28878,6.0669
28879,5.7973
28880,5.7973
28881,5.7973
28882,5.7973
28883,6.0669
28884,5.5277
28885,7.1452
28886,14.424
28887,14.155
28888,11.998
28889,4.9885
28890,6.0669
28891,5.7973
28892,5.5277
28893,6.6061
28894,2.023
28896,7.6844
28897,1.4838
28900,2.2925
28901,6.3365
28902,5.7973
28903,4.7189
28904,11.998
28905,8.7628
28906,4.7189
28907,6.6061
28956,5.5277
29000,15.503
29001,64.569
29002,130.35
29003,187.77
29004,245.47
29005,311.52
29006,376.76
29007,443.62
29008,515.06
29009,562.24
29010,610.77
29011,649.32
29012,679.78
29013,701.62
29014,715.64
29015,718.33
29016,706.2
29017,685.44
29018,660.91
29019,628.56
29020,588.93
29021,554.42
29022,531.78
29023,525.57
29024,516.41
29025,505.09
29026,477.86
29027,443.08
29028,410.73
29029,371.91
29030,329.85
29031,288.33
29032,247.08
29033,204.76
29034,169.71
29035,137.09
29036,104.2
29037,69.691
29038,51.628
29039,28.174
29040,3.1013
29461,3.6405
29462,3.3709
29463,3.3709
29464,3.3709
29465,3.3709
29466,3.3709
29467,3.3709
29468,3.3709
29469,3.3709
29470,3.3709
29471,3.9101
29472,1.4838
29489,1.2142
29490,3.9101
29491,3.3709
29492,3.6405
29493,2.8317
29494,10.111
29495,11.728
29496,11.459
29497,11.459
29498,11.728
29499,3.9101
29500,3.3709
29501,3.3709
29502,3.3709
29503,3.6405
29504,11.459
29505,2.8317
29506,3.3709
29507,3.3709
29508,3.3709
29509,3.3709
29510,3.3709
29511,3.3709
29512,3.3709
29513,3.3709
29514,3.3709
29515,3.3709
29516,2.5621
29517,6.6061
29518,9.5716
29519,1.4838
29520,6.8756
29521,11.998
29522,11.189
29523,11.459
29524,11.459
29525,11.189
29526,12.268
29527,6.3365
29528,2.5621
29529,3.3709
29530,3.1013
29531,3.1013
29532,3.1013
29533,3.1013
29534,3.1013
29535,3.1013
29536,3.1013
29537,3.1013
29538,3.1013
29539,3.3709
29540,2.8317
29541,10.92
29542,11.189
29543,11.189
29544,11.189
29545,11.189
29546,10.65
29547,3.1013
29548,11.728
29549,10.92
29550,11.189
29551,11.189
29552,10.92
29553,11.459
29554,9.0324
29555,4.1797
29556,11.998
29557,10.65
29558,11.189
29559,10.92
29560,10.92
29561,10.92
29562,10.92
29563,10.92
29564,10.92
29565,10.92
29566,10.65
29567,11.728
29568,6.0669
29569,2.2925
29570,3.1013
29571,2.8317
29572,3.1013
29573,2.023
29574,9.0324
29575,11.459
29576,10.65
29577,10.92
29578,10.92
29579,10.92
29580,10.92
29581,10.92
29582,10.92
29583,10.92
29584,10.92
29585,10.65
29586,10.65
29587,2.5621
29588,2.8317
29589,2.5621
29590,2.8317
29591,2.5621
29592,2.8317
29593,2.2925
29594,3.9101
29595,11.998
29596,8.2236
29597,4.4493
29598,9.0324
29599,3.9101
29600,11.998
29601,10.38
29602,10.65
29603,10.65
29604,10.65
29605,10.65
29606,10.65
29607,10.65
29608,10.65
29609,10.65
29610,10.65
29611,10.65
29612,10.65
29613,10.65
29614,10.65
29615,10.65
29616,10.65
29617,10.38
29618,10.65
29619,10.38
29620,11.189
29621,3.3709
29622,2.2925
29623,2.5621
29624,2.2925
29625,2.2925
29626,2.2925
29627,2.2925
29628,2.2925
29629,2.2925
29630,2.2925
29631,2.2925
29632,2.2925
29633,2.5621
29634,2.023
29635,3.6405
29636,11.189
29637,10.111
29638,10.38
29639,10.38
29640,10.38
29641,10.38
29642,10.38
29643,10.38
29644,10.38
29645,10.38
29646,10.38
29647,10.38
29648,10.38
29649,10.38
29650,10.38
29651,10.38
29652,10.111
29653,10.38
29654,9.8412
29655,11.189
29656,3.6405
29657,7.6844
29658,10.65
29659,10.111
29660,10.111
29661,10.92
29662,3.1013
29663,2.023
29664,2.023
29665,2.2925
29666,1.7534
29667,9.8412
29668,10.111
29669,10.111
29670,9.8412
29671,1.7534
29672,2.8317
29673,9.5716
29674,2.5621
29675,9.5716
29676,2.2925
29677,10.92
29678,10.111
29679,8.4932
29681,4.9885
29682,8.2236
29683,1.4838
29687,2.023
29688,5.5277
29689,10.92
29690,9.8412
29691,10.111
29692,10.111
29693,10.111
29694,10.111
29695,10.111
29696,9.8412
29697,9.8412
29698,9.8412
29699,9.8412
29700,9.8412
29701,9.8412
29702,9.8412
29703,10.111
29704,9.0324
29705,17.929
29706,10.111
29707,17.659
29708,10.38
29709,9.8412
29710,9.8412
29711,9.8412
29712,9.8412
29713,9.8412
29714,9.8412
29715,9.8412
29716,9.8412
29717,9.8412
29718,9.8412
29719,9.8412
29720,9.8412
29721,9.5716
29722,9.5716
29723,9.5716
29724,9.5716
29725,9.5716
29726,9.5716
29727,9.5716
29728,9.5716
29729,9.5716
29730,9.5716
29731,9.5716
29732,9.5716
29733,9.302
29734,10.38
29735,4.7189
29736,0.94458
29737,1.7534
29738,1.4838
29739,1.2142
29740,2.2925
29744,1.7534
29745,1.4838
29746,1.4838
29747,1.7534
29748,0.94458
29749,9.5716
29750,1.4838
29751,9.302
29752,9.5716
29753,9.5716
29754,9.5716
29755,9.302
29756,10.111
29757,17.12
29758,9.0324
29759,8.4932
29761,1.4838
29762,1.2142
29763,1.4838
29764,1.4838
29765,1.4838
29766,1.4838
29767,1.4838
29768,1.4838
29769,1.4838
29770,1.2142
29771,1.4838
29773,5.2581
29774,10.92
29775,4.7189
29777,2.5621
29794,1.4838
29795,1.2142
29799,2.023
29800,1.2142
29801,2.023
29809,11.459
29810,9.302
29811,9.5716
29812,9.8412
29813,8.7628
29814,13.615
29815,18.468
29816,17.39
29817,17.659
29818,17.39
29819,18.468
29820,12.268
29821,8.7628
29822,10.38
29823,3.6405
29825,7.954
29826,9.8412
29827,9.302
29828,9.302
29829,9.302
29830,9.302
29831,9.302
29832,9.302
29833,9.302
29834,9.302
29835,17.39
29836,17.39
29837,17.39
29838,17.39
29839,17.39
29840,16.581
29841,8.7628
29842,9.302
29843,9.302
29844,9.0324
29845,9.5716
29846,7.4148
29848,1.4838
29849,0.94458
29850,1.2142
29852,4.1797
29853,10.111
29854,9.0324
29855,9.302
29856,9.302
29857,9.0324
29858,9.8412
29859,4.7189
29861,7.4148
29862,3.3709
29863,5.7973
29864,9.8412
29865,9.0324
29866,9.0324
29867,9.0324
29868,9.0324
29869,9.0324
29870,9.0324
29871,9.0324
29872,9.0324
29873,9.0324
29874,9.0324
29875,9.0324
29876,9.0324
29877,9.0324
29878,9.0324
29879,16.851
29880,8.4932
29881,9.0324
29882,9.0324
29883,7.954
29885,0.94458
29887,0.94458
29888,0.94458
29889,0.94458
29890,0.94458
29891,0.94458
29892,0.94458
29894,3.9101
29895,9.8412
29896,8.7628
29897,8.7628
29898,9.8412
29899,3.9101
29900,4.1797
29901,10.65
29902,3.1013
29903,3.9101
29904,16.851
29905,5.7973
29932,43.81
29933,91.259
29934,147.33
29935,210.42
29936,273.77
29937,346.02
29938,411.0
29939,472.19
29940,533.12
29941,595.94
29942,647.97
29943,692.18
29944,728.04
29945,753.92
29946,779.53
29947,787.35
29948,779.53
29949,764.97
29950,741.25
29951,709.98
29952,668.46
29953,633.41
29954,599.71
29955,578.41
29956,585.69
29957,570.87
29958,553.34
29959,528.81
29960,479.2
29961,429.33
29962,371.37
29963,321.76
29964,272.16
29965,231.18
29966,190.2
29967,157.85
29968,124.42
29969,91.259
29970,59.177
29971,37.34
29972,19.277
30253,6.3365
30275,2.8317
30276,7.1452
30277,6.0669
30278,6.3365
30279,6.0669
30280,7.1452
30291,6.3365
30293,6.3365
30294,6.3365
30297,6.6061
30298,6.3365
30299,6.3365
30300,6.3365
30301,6.3365
30302,6.3365
30303,5.7973
30304,7.954
30305,15.233
30306,13.885
30307,14.963
30308,11.459
30309,6.0669
30310,3.3709
30314,2.023
30315,7.1452
30316,6.0669
30317,6.3365
30318,6.0669
30319,6.0669
30320,6.3365
30321,5.7973
30322,7.1452
30324,3.9101
30325,6.6061
30326,6.0669
30327,6.0669
30328,6.8756
30333,6.0669
30356,3.1013
30357,2.023
30358,1.4838
30359,7.1452
30360,5.7973
30361,6.3365
30362,6.0669
30363,6.3365
30364,5.2581
30365,11.728
30366,15.772
30367,6.3365
30368,13.885
30370,4.4493
30371,6.3365
30372,6.0669
30373,6.0669
30374,6.3365
30377,6.0669
30378,6.0669
30379,5.7973
30383,6.6061
30384,5.7973
30385,6.0669
30386,6.0669
30387,6.0669
30388,6.0669
30389,6.0669
30390,6.0669
30391,6.0669
30392,6.0669
30393,6.0669
30394,6.0669
30395,5.7973
30396,6.8756
30397,1.2142
30398,2.023
30399,2.5621
30403,3.1013
30404,6.6061
30405,5.7973
30406,6.3365
30407,4.9885
30408,12.268
30409,14.155
30410,14.694
30411,7.1452
30412,5.7973
30413,5.5277
30414,13.076
30415,14.424
30416,5.7973
30417,13.615
30418,13.885
30419,13.885
30420,13.885
30421,13.885
30422,13.346
30423,5.2581
30424,6.6061
30425,14.424
30426,13.615
30427,13.615
30428,14.155
30429,11.998
30430,4.7189
30431,6.0669
30432,4.9885
30433,8.2236
30434,14.694
30435,13.346
30436,13.615
30437,13.615
30438,13.615
30439,13.615
30440,13.885
30441,12.537
30442,19.007
30443,17.39
30444,12.807
30445,13.885
30446,13.346
30447,13.615
30448,13.615
30449,13.346
30450,13.615
30451,12.537
30452,20.895
30453,14.963
30454,13.076
30455,13.346
30456,13.346
30457,13.076
30458,21.164
30459,21.434
30460,21.434
30461,13.076
30462,13.346
30463,21.973
30464,28.982
30465,20.625
30466,21.434
30467,21.164
30468,21.164
30469,21.164
30470,21.703
30471,19.007
30472,14.155
30473,21.973
30474,21.434
30475,18.468
30476,11.998
30477,13.076
30478,13.076
30479,11.998
30480,17.39
30481,17.659
30482,11.998
30483,13.076
30484,12.807
30485,13.076
30486,11.998
30487,18.199
30488,21.434
30489,20.625
30490,20.895
30491,20.895
30492,20.625
30493,21.434
30494,14.155
30495,11.728
30496,19.816
30497,20.895
30498,20.625
30499,20.625
30500,20.625
30501,20.625
30502,20.625
30503,20.625
30504,28.443
30505,20.086
30506,20.625
30507,20.355
30508,20.355
30509,20.355
30510,20.355
30511,20.355
30512,20.355
30513,20.355
30514,20.355
30515,20.355
30516,20.355
30517,20.355
30518,20.355
30519,20.086
30520,20.086
30521,20.086
30522,20.086
30523,20.086
30524,20.086
30525,20.086
30526,19.816
30527,20.895
30528,14.963
30529,10.38
30530,17.659
30531,20.355
30532,19.816
30533,20.086
30534,19.816
30535,19.816
30536,19.816
30537,19.816
30538,19.816
30539,19.816
30540,19.816
30541,19.547
30542,27.634
30543,27.904
30544,27.634
30545,27.634
30546,27.634
30547,27.904
30548,27.095
30549,19.007
30550,19.547
30551,19.816
30552,18.199
30553,10.92
30554,10.65
30555,15.772
30556,27.095
30557,18.199
30558,19.816
30559,19.277
30560,19.547
30561,19.007
30562,20.086
30563,15.503
30564,10.38
30565,11.459
30566,11.189
30567,11.459
30568,10.65
30569,15.233
30570,25.208
30571,27.634
30572,27.095
30573,27.095
30574,27.095
30575,27.095
30576,27.095
30577,27.095
30578,27.095
30579,27.095
30580,26.826
30581,27.365
30582,19.277
30583,18.738
30584,18.738
30585,18.738
30586,18.738
30587,10.65
30588,19.277
30589,18.199
30590,10.38
30591,10.92
30592,10.65
30593,10.65
30594,10.38
30595,12.268
30596,19.547
30597,18.468
30598,18.738
30599,18.468
30600,18.468
30601,18.468
30602,18.468
30603,18.468
30604,18.738
30605,17.659
30606,22.512
30607,27.095
30608,27.095
30609,21.703
30610,17.659
30611,18.468
30612,18.199
30613,18.199
30614,18.199
30615,18.199
30616,18.199
30617,18.199
30618,18.199
30619,18.199
30620,18.199
30621,18.199
30622,17.929
30623,18.468
30624,10.38
30625,10.111
30626,10.111
30627,10.111
30628,10.111
30629,9.8412
30630,10.38
30631,18.468
30632,17.929
30633,17.929
30634,17.929
30635,17.929
30636,17.929
30637,17.929
30638,17.929
30639,17.929
30640,17.929
30641,17.929
30642,17.659
30643,18.468
30644,14.694
30645,9.0324
30646,9.302
30647,13.346
30648,19.277
30649,13.076
30650,9.0324
30651,9.302
30652,13.346
30653,24.399
30654,20.625
30655,16.851
30656,17.929
30657,16.851
30658,23.86
30659,26.017
30660,25.478
30661,25.478
30662,25.478
30663,25.478
30664,25.478
30665,25.478
30666,25.478
30667,25.478
30668,25.478
30669,25.478
30670,25.208
30671,25.208
30672,25.478
30673,24.399
30674,17.659
30675,24.938
30676,16.311
30677,17.39
30678,17.39
30679,15.503
30680,8.2236
30681,9.302
30682,9.0324
30683,8.2236
30684,12.268
30685,14.963
30686,7.6844
30687,9.302
30688,7.954
30689,12.807
30690,17.659
30691,16.851
30692,16.851
30693,16.851
30694,16.851
30695,16.851
30696,16.851
30697,16.851
30698,16.851
30699,16.851
30700,16.851
30701,16.581
30702,17.659
30703,9.302
30704,14.694
30705,24.669
30706,17.39
30707,16.581
30708,16.581
30709,16.581
30710,16.581
30711,16.581
30712,16.581
30713,16.581
30714,15.772
30715,8.7628
30716,17.12
30717,16.311
30718,16.581
30719,16.311
30720,16.851
30721,14.155
30722,9.5716
30723,17.39
30724,16.042
30725,17.12
30726,13.615
30727,7.4148
30728,8.4932
30729,8.2236
30730,8.2236
30731,7.954
30732,9.0324
30733,3.9101
30735,5.2581
30736,8.4932
30737,9.0324
30738,2.5621
30741,1.2142
30754,8.2236
30756,9.5716
30757,15.772
30758,8.7628
30759,16.042
30760,7.4148
30761,8.4932
30762,8.2236
30763,8.2236
30764,8.2236
30765,8.2236
30766,8.2236
30767,7.4148
30768,11.189
30769,17.12
30770,16.042
30771,15.503
30772,19.816
30773,24.938
30774,23.86
30775,24.13
30776,24.13
30777,23.86
30778,24.938
30779,18.738
30780,15.233
30781,16.311
30782,14.963
30783,22.243
30784,24.399
30785,23.86
30786,23.86
30787,23.59
30788,24.669
30789,15.772
30790,23.59
30791,15.772
30792,23.59
30793,23.59
30794,23.59
30795,15.503
30796,15.772
30797,15.503
30798,15.503
30799,15.503
30800,15.503
30801,15.503
30802,15.772
30803,13.885
30804,6.6061
30805,7.6844
30806,7.4148
30807,6.8756
30808,9.8412
30809,16.311
30810,15.233
30811,15.233
30812,16.311
30813,10.65
30814,11.189
30815,12.537
30816,5.2581
30817,13.076
30818,11.189
30819,6.3365
30820,7.4148
30821,7.1452
30822,7.1452
30823,7.4148
30824,6.3365
30825,13.346
30826,15.772
30827,14.155
30828,22.782
30829,16.311
30830,14.963
30831,15.233
30832,15.233
30833,15.233
30834,14.963
30835,15.233
30836,6.8756
30837,7.1452
30838,6.8756
30839,7.1452
30840,6.8756
30841,6.8756
30842,6.8756
30843,7.1452
30844,6.6061
30845,9.0324
30846,14.155
30847,5.2581
30848,10.111
30849,13.346
30850,6.3365
30851,5.5277
30852,14.424
30853,18.199
30854,4.7189
30855,7.6844
30856,5.7973
30857,11.189
30858,15.772
30859,14.694
30860,14.963
30861,14.694
30862,15.772
30863,9.302
30864,5.7973
30865,8.4932
30891,0.94458
30892,50.819
30893,102.04
30894,164.86
30895,226.06
30896,290.49
30897,362.47
30898,426.63
30899,493.22
30900,553.88
30901,610.5
30902,665.22
30903,700.27
30904,746.1
30905,772.25
30906,793.55
30907,800.83
30908,792.74
30909,777.91
30910,753.92
30911,722.11
30912,680.59
30913,645.81
30914,611.57
30915,592.97
30916,583.81
30917,575.18
30918,558.46
30919,525.04
30920,482.98
30921,433.1
30922,382.69
30923,324.73
30924,275.93
30925,236.03
30926,202.06
30927,161.08
30928,128.46
30929,96.92
30930,72.926
30931,47.584
30932,25.208
30933,8.7628
31226,4.1797
31227,3.1013
31228,3.3709
31229,3.3709
31230,3.3709
31231,3.1013
31232,4.4493
31235,3.9101
31236,3.9101
31250,3.1013
31251,3.3709
31252,3.3709
31253,11.459
31254,3.1013
31255,3.3709
31256,3.3709
31257,3.3709
31258,3.3709
31259,3.3709
31260,3.3709
31261,3.3709
31262,3.3709
31263,3.3709
31264,3.3709
31265,2.8317
31266,5.7973
31267,12.268
31268,11.189
31269,11.189
31270,11.998
31271,7.6844
31272,2.5621
31273,2.2925
31274,8.2236
31275,7.4148
31276,2.2925
31277,3.3709
31278,3.1013
31279,3.1013
31280,3.3709
31281,2.023
31282,10.111
31283,5.5277
31284,2.5621
31285,3.3709
31286,3.1013
31287,3.1013
31288,3.6405
31294,3.3709
31295,3.1013
31300,3.9101
31301,3.1013
31302,3.3709
31303,2.8317
31304,5.2581
31305,10.111
31306,2.023
31307,3.3709
31308,3.1013
31309,3.3709
31310,2.5621
31311,6.0669
31312,13.076
31313,6.6061
31314,6.3365
31315,11.998
31316,11.728
31317,6.6061
31318,2.5621
31319,3.1013
31320,3.9101
31323,1.2142
31324,3.3709
31325,3.6405
31333,2.8317
31334,3.1013
31335,3.1013
31336,3.1013
31337,3.1013
31338,3.1013
31339,2.5621
31346,3.9101
31347,2.8317
31348,3.1013
31349,3.1013
31350,3.1013
31351,3.1013
31352,3.1013
31353,3.1013
31354,3.3709
31355,2.023
31356,7.954
31357,7.6844
31358,2.023
31359,3.3709
31360,3.1013
31361,3.1013
31362,3.3709
31363,2.2925
31364,8.7628
31365,11.728
31366,10.92
31367,11.189
31368,11.189
31369,11.189
31370,10.92
31371,10.92
31372,10.92
31373,10.92
31374,10.92
31375,10.92
31376,10.92
31377,10.92
31378,10.92
31379,10.92
31380,10.92
31381,10.92
31382,10.92
31383,10.92
31384,10.92
31385,11.189
31386,9.302
31387,2.8317
31390,10.65
31391,1.4838
31392,3.3709
31393,2.023
31394,6.0669
31395,11.728
31396,10.65
31397,10.92
31398,10.65
31399,10.92
31400,10.65
31401,10.65
31402,10.65
31403,10.65
31404,10.92
31405,9.8412
31406,16.851
31407,18.199
31408,25.747
31409,20.625
31410,18.199
31411,18.738
31412,18.468
31413,19.277
31414,11.189
31415,10.38
31416,10.65
31417,10.65
31418,10.38
31419,10.38
31420,10.38
31421,10.38
31422,10.38
31423,11.189
31424,19.007
31425,18.199
31426,18.468
31427,18.468
31428,18.468
31429,18.468
31430,18.468
31431,18.468
31432,18.199
31433,18.738
31434,15.772
31435,8.4932
31436,14.424
31437,15.503
31438,9.0324
31439,10.38
31440,10.111
31441,10.111
31442,10.111
31443,10.111
31444,10.111
31445,10.111
31446,10.111
31447,10.111
31448,10.111
31449,10.111
31450,10.38
31451,9.0324
31452,17.39
31453,11.459
31454,9.8412
31455,10.111
31456,10.111
31457,10.111
31458,10.111
31459,9.8412
31460,9.8412
31461,9.8412
31462,9.8412
31463,9.8412
31464,9.8412
31465,9.8412
31466,9.5716
31467,10.92
31468,18.468
31469,17.659
31470,17.929
31471,17.929
31472,17.929
31473,17.929
31474,17.659
31475,18.468
31476,14.155
31477,11.998
31478,18.738
31479,17.39
31480,17.929
31481,17.39
31482,18.468
31483,13.346
31484,8.7628
31485,10.111
31486,8.7628
31487,14.963
31488,18.199
31489,17.39
31490,17.659
31491,17.39
31492,18.468
31493,10.111
31494,16.042
31495,17.929
31496,17.39
31497,17.39
31498,17.929
31499,9.5716
31500,17.12
31501,17.659
31502,9.302
31503,9.5716
31504,25.478
31505,16.851
31506,17.39
31507,17.12
31508,17.39
31509,17.12
31510,17.12
31511,17.12
31512,17.12
31513,17.659
31514,14.963
31515,8.4932
31516,8.7628
31517,11.728
31518,17.929
31519,16.851
31520,17.12
31521,17.39
31522,16.042
31523,22.243
31524,20.625
31525,20.625
31526,25.747
31527,25.478
31528,19.816
31529,16.311
31530,17.12
31531,16.851
31532,16.851
31533,16.851
31534,16.851
31535,16.851
31536,16.581
31537,17.39
31538,9.5716
31539,8.4932
31540,8.7628
31541,8.7628
31542,8.7628
31543,8.4932
31544,16.851
31545,16.581
31546,16.581
31547,16.581
31548,16.581
31549,16.581
31550,16.581
31551,16.851
31552,15.233
31553,7.4148
31554,9.8412
31555,19.547
31556,23.051
31557,15.233
31558,17.39
